temps	angle
0	0
0.01	0.5637176432
0.02	1.123608772
0.03	1.679245024
0.04	2.23020403
0.05	2.776069718
0.06	3.316432607
0.07	3.850890104
0.08	4.379046781
0.09	4.900514655
0.1	5.414913455
0.11	5.921870882
0.12	6.421022862
0.13	6.912013789
0.14	7.394496761
0.15	7.868133811
0.16	8.332596121
0.17	8.787564235
0.18	9.23272826
0.19	9.667788059
0.2	10.09245343
0.21	10.5064443
0.22	10.90949085
0.23	11.30133371
0.24	11.68172409
0.25	12.05042393
0.26	12.40720599
0.27	12.75185402
0.28	13.08416283
0.29	13.4039384
0.3	13.71099798
0.31	14.00517016
0.32	14.28629494
0.33	14.55422379
0.34	14.80881971
0.35	15.04995727
0.36	15.27752263
0.37	15.49141355
0.38	15.69153947
0.39	15.87782142
0.4	16.05019209
0.41	16.20859577
0.42	16.35298834
0.43	16.48333724
0.44	16.59962142
0.45	16.70183131
0.46	16.78996871
0.47	16.86404677
0.48	16.9240899
0.49	16.97013365
0.5	17.00222466
0.51	17.02042054
0.52	17.02478973
0.53	17.01541144
0.54	16.99237545
0.55	16.95578203
0.56	16.90574178
0.57	16.84237547
0.58	16.76581388
0.59	16.67619766
0.6	16.57367713
0.61	16.4584121
0.62	16.33057172
0.63	16.19033424
0.64	16.03788686
0.65	15.87342547
0.66	15.6971545
0.67	15.50928667
0.68	15.31004275
0.69	15.09965138
0.7	14.87834882
0.71	14.6463787
0.72	14.40399179
0.73	14.15144576
0.74	13.88900493
0.75	13.61694
0.76	13.33552782
0.77	13.04505111
0.78	12.74579822
0.79	12.43806282
0.8	12.12214368
0.81	11.79834438
0.82	11.46697304
0.83	11.128342
0.84	10.78276764
0.85	10.43057
0.86	10.07207257
0.87	9.707601956
0.88	9.337487652
0.89	8.962061714
0.9	8.581658495
0.91	8.196614362
0.92	7.807267407
0.93	7.413957169
0.94	7.017024351
0.95	6.616810535
0.96	6.213657908
0.97	5.807908974
0.98	5.399906285
0.99	4.989992156
1	4.578508399
1.01	4.165796043
1.02	3.752195068
1.03	3.338044139
1.04	2.923680335
1.05	2.509438891
1.06	2.095652939
1.07	1.68265325
1.08	1.270767984
1.09	0.860322438
1.1	0.4516388037
1.11	0.04503592544
1.12	-0.3591709371
1.13	-0.7606703411
1.14	-1.159154889
1.15	-1.554321452
1.16	-1.945871388
1.17	-2.333510758
1.18	-2.716950531
1.19	-3.095906792
1.2	-3.470100936
1.21	-3.839259864
1.22	-4.203116167
1.23	-4.561408312
1.24	-4.913880814
1.25	-5.260284405
1.26	-5.600376202
1.27	-5.93391986
1.28	-6.260685727
1.29	-6.580450987
1.3	-6.892999799
1.31	-7.198123428
1.32	-7.495620374
1.33	-7.785296489
1.34	-8.066965088
1.35	-8.340447059
1.36	-8.605570957
1.37	-8.862173102
1.38	-9.110097657
1.39	-9.349196716
1.4	-9.579330368
1.41	-9.800366764
1.42	-10.01218218
1.43	-10.21466105
1.44	-10.40769605
1.45	-10.59118809
1.46	-10.76504636
1.47	-10.92918838
1.48	-11.08353997
1.49	-11.22803529
1.5	-11.36261686
1.51	-11.48723551
1.52	-11.60185039
1.53	-11.70642898
1.54	-11.80094702
1.55	-11.88538853
1.56	-11.95974572
1.57	-12.02401898
1.58	-12.07821684
1.59	-12.1223559
1.6	-12.15646073
1.61	-12.1805639
1.62	-12.19470579
1.63	-12.1989346
1.64	-12.19330621
1.65	-12.17788415
1.66	-12.15273941
1.67	-12.11795043
1.68	-12.07360293
1.69	-12.01978985
1.7	-11.95661116
1.71	-11.88417383
1.72	-11.80259161
1.73	-11.71198497
1.74	-11.61248091
1.75	-11.50421285
1.76	-11.38732049
1.77	-11.26194962
1.78	-11.128252
1.79	-10.98638521
1.8	-10.83651244
1.81	-10.6788024
1.82	-10.51342905
1.83	-10.34057154
1.84	-10.16041395
1.85	-9.973145153
1.86	-9.778958613
1.87	-9.578052223
1.88	-9.370628105
1.89	-9.156892425
1.9	-8.9370552
1.91	-8.711330113
1.92	-8.479934309
1.93	-8.243088209
1.94	-8.001015305
1.95	-7.753941966
1.96	-7.502097237
1.97	-7.245712637
1.98	-6.985021963
1.99	-6.720261078
2	-6.45166772
2.01	-6.17948129
2.02	-5.903942654
2.03	-5.625293941
2.04	-5.343778334
2.05	-5.059639874
2.06	-4.773123258
2.07	-4.484473633
2.08	-4.1939364
2.09	-3.901757013
2.1	-3.60818078
2.11	-3.313452671
2.12	-3.017817114
2.13	-2.721517811
2.14	-2.424797537
2.15	-2.127897958
2.16	-1.831059435
2.17	-1.534520844
2.18	-1.23851939
2.19	-0.9432904267
2.2	-0.6490672762
2.21	-0.3560810549
2.22	-0.06456049945
2.23	0.2252682029
2.24	0.5131815817
2.25	0.7989590469
2.26	1.082383049
2.27	1.363239238
2.28	1.641316615
2.29	1.916407682
2.3	2.18830859
2.31	2.456819281
2.32	2.721743626
2.33	2.982889558
2.34	3.240069207
2.35	3.493099022
2.36	3.741799894
2.37	3.985997275
2.38	4.225521292
2.39	4.460206853
2.4	4.689893754
2.41	4.914426778
2.42	5.13365579
2.43	5.347435829
2.44	5.555627191
2.45	5.758095514
2.46	5.954711852
2.47	6.145352745
2.48	6.329900289
2.49	6.508242197
2.5	6.680271853
2.51	6.845888368
2.52	7.004996626
2.53	7.157507323
2.54	7.303337008
2.55	7.442408113
2.56	7.574648984
2.57	7.699993896
2.58	7.81838308
2.59	7.929762726
2.6	8.034084998
2.61	8.131308033
2.62	8.221395942
2.63	8.3043188
2.64	8.380052635
2.65	8.448579413
2.66	8.509887018
2.67	8.563969222
2.68	8.610825661
2.69	8.650461795
2.7	8.68288887
2.71	8.708123877
2.72	8.726189499
2.73	8.737114065
2.74	8.740931487
2.75	8.737681205
2.76	8.727408116
2.77	8.710162512
2.78	8.686000001
2.79	8.654981435
2.8	8.617172827
2.81	8.572645267
2.82	8.521474836
2.83	8.463742513
2.84	8.399534082
2.85	8.328940034
2.86	8.252055462
2.87	8.168979964
2.88	8.079817529
2.89	7.984676431
2.9	7.883669116
2.91	7.776912083
2.92	7.66452577
2.93	7.54663443
2.94	7.423366011
2.95	7.294852028
2.96	7.161227438
2.97	7.02263051
2.98	6.879202691
2.99	6.73108848
3	6.578435283
3.01	6.421393286
3.02	6.260115313
3.03	6.094756689
3.04	5.925475097
3.05	5.752430438
3.06	5.575784691
3.07	5.395701769
3.08	5.212347372
3.09	5.025888847
3.1	4.836495043
3.11	4.644336162
3.12	4.449583618
3.13	4.252409891
3.14	4.052988378
3.15	3.851493253
3.16	3.648099317
3.17	3.442981857
3.18	3.2363165
3.19	3.028279071
3.2	2.819045448
3.21	2.608791421
3.22	2.397692551
3.23	2.18592403
3.24	1.973660542
3.25	1.761076124
3.26	1.548344032
3.27	1.335636602
3.28	1.123125121
3.29	0.9109796944
3.3	0.6993691132
3.31	0.4884607284
3.32	0.2784203237
3.33	0.0694119917
3.34	-0.1384019884
3.35	-0.3448612709
3.36	-0.5498075611
3.37	-0.7530847306
3.38	-0.9545389301
3.39	-1.1540187
3.4	-1.351375078
3.41	-1.546461705
3.42	-1.739134926
3.43	-1.929253889
3.44	-2.116680647
3.45	-2.301280244
3.46	-2.482920812
3.47	-2.661473658
3.48	-2.836813344
3.49	-3.008817774
3.5	-3.177368272
3.51	-3.342349653
3.52	-3.503650298
3.53	-3.661162224
3.54	-3.814781146
3.55	-3.96440654
3.56	-4.109941705
3.57	-4.251293811
3.58	-4.388373958
3.59	-4.521097218
3.6	-4.649382685
3.61	-4.773153513
3.62	-4.892336953
3.63	-5.00686439
3.64	-5.116671371
3.65	-5.221697634
3.66	-5.321887131
3.67	-5.417188045
3.68	-5.507552811
3.69	-5.592938127
3.7	-5.673304963
3.71	-5.748618567
3.72	-5.818848467
3.73	-5.883968472
3.74	-5.943956665
3.75	-5.998795395
3.76	-6.048471271
3.77	-6.092975138
3.78	-6.132302068
3.79	-6.166451333
3.8	-6.195426383
3.81	-6.219234818
3.82	-6.237888355
3.83	-6.251402798
3.84	-6.259797997
3.85	-6.263097808
3.86	-6.261330054
3.87	-6.254526473
3.88	-6.242722673
3.89	-6.225958079
3.9	-6.204275878
3.91	-6.177722964
3.92	-6.146349872
3.93	-6.110210724
3.94	-6.069363156
3.95	-6.023868257
3.96	-5.973790494
3.97	-5.919197643
3.98	-5.860160713
3.99	-5.796753869
4	-5.729054358
4.01	-5.657142421
4.02	-5.581101215
4.03	-5.501016728
4.04	-5.416977692
4.05	-5.329075497
4.06	-5.237404097
4.07	-5.142059923
4.08	-5.043141791
4.09	-4.940750804
4.1	-4.83499026
4.11	-4.725965556
4.12	-4.613784087
4.13	-4.498555151
4.14	-4.380389849
4.15	-4.259400983
4.16	-4.135702957
4.17	-4.009411672
4.18	-3.880644429
4.19	-3.749519819
4.2	-3.616157626
4.21	-3.48067872
4.22	-3.343204956
4.23	-3.203859064
4.24	-3.062764552
4.25	-2.920045597
4.26	-2.775826942
4.27	-2.630233795
4.28	-2.483391719
4.29	-2.335426535
4.3	-2.186464217
4.31	-2.036630787
4.32	-1.886052217
4.33	-1.734854324
4.34	-1.583162674
4.35	-1.431102478
4.36	-1.278798495
4.37	-1.126374936
4.38	-0.9739553637
4.39	-0.8216625983
4.4	-0.6696186239
4.41	-0.5179444941
4.42	-0.3667602401
4.43	-0.2161847806
4.44	-0.06633583185
4.45	0.0826701793
4.46	0.230718202
4.47	0.3776946458
4.48	0.5234874632
4.49	0.6679862311
4.5	0.8110822298
4.51	0.9526685208
4.52	1.092640022
4.53	1.23089358
4.54	1.367328046
4.55	1.501844341
4.56	1.634345522
4.57	1.764736854
4.58	1.892925868
4.59	2.018822422
4.6	2.142338762
4.61	2.263389576
4.62	2.381892052
4.63	2.497765924
4.64	2.610933526
4.65	2.72131984
4.66	2.828852536
4.67	2.933462016
4.68	3.035081456
4.69	3.133646841
4.7	3.229097
4.71	3.321373639
4.72	3.410421372
4.73	3.496187744
4.74	3.578623259
4.75	3.657681404
4.76	3.733318664
4.77	3.805494541
4.78	3.874171571
4.79	3.939315333
4.8	4.00089446
4.81	4.058880644
4.82	4.113248645
4.83	4.163976287
4.84	4.211044463
4.85	4.254437129
4.86	4.294141298
4.87	4.330147036
4.88	4.362447447
4.89	4.391038664
4.9	4.415919832
4.91	4.437093091
4.92	4.454563557
4.93	4.4683393
4.94	4.478431319
4.95	4.484853516
4.96	4.487622669
4.97	4.486758397
4.98	4.482283134
4.99	4.474222087
5	4.462603203
5.01	4.44745713
5.02	4.428817174
5.03	4.40671926
5.04	4.381201882
5.05	4.352306063
5.06	4.320075302
5.07	4.284555524
5.08	4.245795033
5.09	4.203844454
5.1	4.158756681
5.11	4.11058682
5.12	4.059392131
5.13	4.00523197
5.14	3.948167728
5.15	3.888262768
5.16	3.825582365
5.17	3.760193639
5.18	3.692165494
5.19	3.621568547
5.2	3.548475061
5.21	3.472958884
5.22	3.39509537
5.23	3.314961316
5.24	3.23263489
5.25	3.14819556
5.26	3.061724018
5.27	2.973302116
5.28	2.883012785
5.29	2.790939965
5.3	2.697168534
5.31	2.601784228
5.32	2.504873572
5.33	2.406523803
5.34	2.306822797
5.35	2.205858991
5.36	2.103721313
5.37	2.000499105
5.38	1.896282047
5.39	1.791160085
5.4	1.685223358
5.41	1.57856212
5.42	1.471266671
5.43	1.36342728
5.44	1.255134116
5.45	1.146477173
5.46	1.037546202
5.47	0.9284306361
5.48	0.8192195224
5.49	0.7100014527
5.5	0.6008644943
5.51	0.4918961225
5.52	0.3831831533
5.53	0.2748116774
5.54	0.1668669955
5.55	0.05943355395
5.56	-0.04740511818
5.57	-0.1535664708
5.58	-0.2589689934
5.59	-0.3635322749
5.6	-0.4671770614
5.61	-0.5698253136
5.62	-0.671400262
5.63	-0.7718264615
5.64	-0.8710298442
5.65	-0.9689377707
5.66	-1.06547908
5.67	-1.160584139
5.68	-1.254184888
5.69	-1.346214888
5.7	-1.436609361
5.71	-1.525305236
5.72	-1.61224119
5.73	-1.697357683
5.74	-1.780596998
5.75	-1.861903276
5.76	-1.941222553
5.77	-2.018502784
5.78	-2.093693884
5.79	-2.166747747
5.8	-2.237618281
5.81	-2.306261427
5.82	-2.372635185
5.83	-2.436699636
5.84	-2.498416961
5.85	-2.557751459
5.86	-2.614669562
5.87	-2.669139852
5.88	-2.72113307
5.89	-2.770622129
5.9	-2.817582124
5.91	-2.861990335
5.92	-2.903826236
5.93	-2.943071496
5.94	-2.979709982
5.95	-3.013727758
5.96	-3.045113086
5.97	-3.073856416
5.98	-3.099950387
5.99	-3.123389818
6	-3.144171696
6.01	-3.162295169
6.02	-3.177761533
6.03	-3.190574219
6.04	-3.200738773
6.05	-3.208262844
6.06	-3.213156165
6.07	-3.215430528
6.08	-3.215099767
6.09	-3.212179732
6.1	-3.206688267
6.11	-3.198645179
6.12	-3.188072215
6.13	-3.174993031
6.14	-3.159433158
6.15	-3.141419979
6.16	-3.120982686
6.17	-3.098152253
6.18	-3.072961395
6.19	-3.045444536
6.2	-3.015637768
6.21	-2.983578813
6.22	-2.94930698
6.23	-2.91286313
6.24	-2.874289627
6.25	-2.833630302
6.26	-2.7909304
6.27	-2.746236543
6.28	-2.699596681
6.29	-2.651060044
6.3	-2.600677099
6.31	-2.548499497
6.32	-2.494580026
6.33	-2.438972563
6.34	-2.381732024
6.35	-2.322914312
6.36	-2.262576266
6.37	-2.200775611
6.38	-2.137570906
6.39	-2.073021491
6.4	-2.007187433
6.41	-1.940129477
6.42	-1.871908992
6.43	-1.802587915
6.44	-1.732228699
6.45	-1.660894262
6.46	-1.58864793
6.47	-1.515553387
6.48	-1.441674618
6.49	-1.367075858
6.5	-1.291821537
6.51	-1.21597623
6.52	-1.1396046
6.53	-1.062771348
6.54	-0.9855411617
6.55	-0.9079786588
6.56	-0.8301483401
6.57	-0.7521145363
6.58	-0.6739413568
6.59	-0.5956926402
6.6	-0.5174319038
6.61	-0.439222295
6.62	-0.3611265418
6.63	-0.2832069055
6.64	-0.205525133
6.65	-0.1281424099
6.66	-0.05111931501
6.67	0.02548422526
6.68	0.1016089811
6.69	0.1771964627
6.7	0.2521889635
6.71	0.3265296015
6.72	0.4001623602
6.73	0.473032129
6.74	0.5450847418
6.75	0.616267015
6.76	0.6865267847
6.77	0.7558129427
6.78	0.824075471
6.79	0.8912654759
6.8	0.9573352206
6.81	1.022238157
6.82	1.085928955
6.83	1.148363534
6.84	1.209499088
6.85	1.269294115
6.86	1.327708442
6.87	1.384703248
6.88	1.44024109
6.89	1.49428592
6.9	1.546803114
6.91	1.597759481
6.92	1.64712329
6.93	1.694864282
6.94	1.740953687
6.95	1.78536424
6.96	1.828070189
6.97	1.869047312
6.98	1.908272926
6.99	1.945725892
7	1.981386631
7.01	2.01523712
7.02	2.047260908
7.03	2.077443112
7.04	2.105770422
7.05	2.132231103
7.06	2.156814996
7.07	2.179513514
7.08	2.20031964
7.09	2.219227927
7.1	2.236234488
7.11	2.251336993
7.12	2.264534659
7.13	2.275828244
7.14	2.285220038
7.15	2.292713845
7.16	2.298314982
7.17	2.302030255
7.18	2.303867952
7.19	2.303837823
7.2	2.301951065
7.21	2.298220306
7.22	2.292659584
7.23	2.285284327
7.24	2.276111335
7.25	2.265158753
7.26	2.252446055
7.27	2.237994017
7.28	2.221824691
7.29	2.203961381
7.3	2.184428618
7.31	2.163252132
7.32	2.140458823
7.33	2.116076734
7.34	2.090135019
7.35	2.062663916
7.36	2.033694715
7.37	2.003259726
7.38	1.971392247
7.39	1.93812653
7.4	1.903497752
7.41	1.867541975
7.42	1.830296116
7.43	1.791797913
7.44	1.752085883
7.45	1.711199296
7.46	1.669178131
7.47	1.626063041
7.48	1.581895321
7.49	1.536716864
7.5	1.490570128
7.51	1.4434981
7.52	1.395544252
7.53	1.346752508
7.54	1.297167205
7.55	1.246833055
7.56	1.195795103
7.57	1.144098696
7.58	1.091789436
7.59	1.038913151
7.6	0.9855158478
7.61	0.9316436795
7.62	0.8773429061
7.63	0.8226598557
7.64	0.7676408877
7.65	0.7123323549
7.66	0.656780566
7.67	0.601031749
7.68	0.545132014
7.69	0.4891273169
7.7	0.4330634232
7.71	0.3769858726
7.72	0.3209399432
7.73	0.2649706168
7.74	0.2091225443
7.75	0.1534400119
7.76	0.0979669075
7.77	0.04274668743
7.78	-0.01217765555
7.79	-0.0667636244
7.8	-0.120969249
7.81	-0.1747531168
7.82	-0.2280744031
7.83	-0.2808928999
7.84	-0.3331690452
7.85	-0.3848639507
7.86	-0.4359394293
7.87	-0.4863580215
7.88	-0.5360830211
7.89	-0.5850785008
7.9	-0.633309336
7.91	-0.6807412287
7.92	-0.7273407297
7.93	-0.773075261
7.94	-0.8179131364
7.95	-0.8618235822
7.96	-0.904776756
7.97	-0.9467437657
7.98	-0.9876966866
7.99	-1.027608578
8	-1.066453501
8.01	-1.10420653
8.02	-1.140843769
8.03	-1.176342365
8.04	-1.210680518
8.05	-1.243837495
8.06	-1.275793639
8.07	-1.306530377
8.08	-1.336030231
8.09	-1.364276826
8.1	-1.391254891
8.11	-1.416950272
8.12	-1.441349933
8.13	-1.464441959
8.14	-1.486215561
8.15	-1.506661078
8.16	-1.525769976
8.17	-1.543534849
8.18	-1.55994942
8.19	-1.575008536
8.2	-1.58870817
8.21	-1.601045411
8.22	-1.612018467
8.23	-1.621626654
8.24	-1.629870393
8.25	-1.636751203
8.26	-1.64227169
8.27	-1.646435542
8.28	-1.64924752
8.29	-1.650713444
8.3	-1.650840184
8.31	-1.64963565
8.32	-1.647108776
8.33	-1.643269508
8.34	-1.638128792
8.35	-1.631698557
8.36	-1.623991699
8.37	-1.615022066
8.38	-1.604804441
8.39	-1.593354525
8.4	-1.580688918
8.41	-1.5668251
8.42	-1.551781413
8.43	-1.535577038
8.44	-1.51823198
8.45	-1.499767042
8.46	-1.480203805
8.47	-1.459564606
8.48	-1.437872516
8.49	-1.415151317
8.5	-1.391425477
8.51	-1.366720127
8.52	-1.341061041
8.53	-1.314474601
8.54	-1.286987785
8.55	-1.258628131
8.56	-1.229423718
8.57	-1.199403136
8.58	-1.168595464
8.59	-1.137030239
8.6	-1.104737434
8.61	-1.071747428
8.62	-1.038090981
8.63	-1.003799204
8.64	-0.9689035373
8.65	-0.9334357168
8.66	-0.8974277513
8.67	-0.860911893
8.68	-0.8239206105
8.69	-0.7864865616
8.7	-0.7486425653
8.71	-0.7104215747
8.72	-0.6718566499
8.73	-0.6329809301
8.74	-0.593827607
8.75	-0.5544298972
8.76	-0.5148210159
8.77	-0.4750341495
8.78	-0.4351024296
8.79	-0.3950589061
8.8	-0.3549365215
8.81	-0.3147680846
8.82	-0.2745862453
8.83	-0.2344234688
8.84	-0.1943120108
8.85	-0.1542838926
8.86	-0.114370877
8.87	-0.07460444369
8.88	-0.03501576621
8.89	0.004364311804
8.9	0.0435052993
8.91	0.08237708033
8.92	0.1209499361
8.93	0.1591945664
8.94	0.197082111
8.95	0.2345841701
8.96	0.2716728242
8.97	0.3083206545
8.98	0.3445007609
8.99	0.3801867818
9	0.415352911
9.01	0.4499739161
9.02	0.4840251546
9.03	0.517482591
9.04	0.5503228118
9.05	0.5825230413
9.06	0.6140611558
9.07	0.6449156975
9.08	0.6750658878
9.09	0.7044916404
9.1	0.7331735728
9.11	0.7610930178
9.12	0.7882320349
9.13	0.8145734193
9.14	0.8401007124
9.15	0.8647982101
9.16	0.888650971
9.17	0.9116448238
9.18	0.9337663744
9.19	0.9550030118
9.2	0.9753429136
9.21	0.9947750509
9.22	1.013289192
9.23	1.030875908
9.24	1.047526571
9.25	1.063233361
9.26	1.077989266
9.27	1.091788081
9.28	1.104624409
9.29	1.116493664
9.3	1.127392064
9.31	1.137316632
9.32	1.146265196
9.33	1.154236382
9.34	1.161229612
9.35	1.1672451
9.36	1.172283846
9.37	1.176347633
9.38	1.179439018
9.39	1.181561325
9.4	1.182718641
9.41	1.182915807
9.42	1.182158406
9.43	1.18045276
9.44	1.177805916
9.45	1.174225638
9.46	1.169720393
9.47	1.164299348
9.48	1.15797235
9.49	1.150749917
9.5	1.142643226
9.51	1.133664102
9.52	1.123824999
9.53	1.113138993
9.54	1.101619762
9.55	1.089281574
9.56	1.076139273
9.57	1.062208261
9.58	1.047504484
9.59	1.032044416
9.6	1.01584504
9.61	0.9989238359
9.62	0.9812987593
9.63	0.9629882258
9.64	0.9440110936
9.65	0.924386645
9.66	0.904134569
9.67	0.8832749425
9.68	0.8618282119
9.69	0.8398151746
9.7	0.81725696
9.71	0.7941750104
9.72	0.7705910621
9.73	0.7465271257
9.74	0.7220054673
9.75	0.6970485885
9.76	0.6716792072
9.77	0.6459202377
9.78	0.6197947713
9.79	0.5933260567
9.8	0.5665374799
9.81	0.539452545
9.82	0.5120948542
9.83	0.4844880885
9.84	0.4566559879
9.85	0.4286223321
9.86	0.4004109207
9.87	0.3720455546
9.88	0.3435500161
9.89	0.3149480502
9.9	0.2862633459
9.91	0.2575195167
9.92	0.2287400829
9.93	0.1999484526
9.94	0.1711679038
9.95	0.1424215662
9.96	0.1137324038
9.97	0.08512319675
9.98	0.05661652489
9.99	0.02823475013
10	1.09748833e-15
10.01	-0.02806584884
10.02	-0.05594118673
10.03	-0.0836046868
10.04	-0.1110353205
10.05	-0.1382123728
10.06	-0.1651154569
10.07	-0.1917245289
10.08	-0.2180199015
10.09	-0.2439822582
10.1	-0.2695926664
10.11	-0.2948325905
10.12	-0.3196839042
10.13	-0.3441289031
10.14	-0.3681503158
10.15	-0.391731316
10.16	-0.4148555328
10.17	-0.4375070614
10.18	-0.4596704731
10.19	-0.4813308251
10.2	-0.5024736691
10.21	-0.5230850606
10.22	-0.5431515667
10.23	-0.562660274
10.24	-0.5815987961
10.25	-0.5999552801
10.26	-0.6177184131
10.27	-0.634877428
10.28	-0.6514221093
10.29	-0.6673427975
10.3	-0.6826303938
10.31	-0.6972763642
10.32	-0.7112727427
10.33	-0.7246121348
10.34	-0.7372877195
10.35	-0.7492932516
10.36	-0.7606230634
10.37	-0.7712720657
10.38	-0.7812357484
10.39	-0.7905101807
10.4	-0.7990920109
10.41	-0.8069784656
10.42	-0.8141673483
10.43	-0.8206570379
10.44	-0.8264464866
10.45	-0.8315352171
10.46	-0.8359233199
10.47	-0.8396114495
10.48	-0.8426008207
10.49	-0.8448932041
10.5	-0.8464909215
10.51	-0.8473968409
10.52	-0.8476143703
10.53	-0.8471474525
10.54	-0.8460005581
10.55	-0.8441786792
10.56	-0.8416873219
10.57	-0.838532499
10.58	-0.834720722
10.59	-0.8302589931
10.6	-0.8251547962
10.61	-0.8194160884
10.62	-0.8130512905
10.63	-0.8060692777
10.64	-0.7984793694
10.65	-0.7902913192
10.66	-0.7815153045
10.67	-0.7721619157
10.68	-0.7622421451
10.69	-0.7517673758
10.7	-0.7407493701
10.71	-0.7292002579
10.72	-0.7171325242
10.73	-0.7045589978
10.74	-0.691492838
