temps	angle
0	0
0.01	0.7813524316
0.02	1.554143586
0.03	2.317680577
0.04	3.071286732
0.05	3.814302108
0.06	4.546083995
0.07	5.266007385
0.08	5.97346543
0.09	6.667869871
0.1	7.348651443
0.11	8.015260264
0.12	8.667166191
0.13	9.303859162
0.14	9.924849502
0.15	10.52966822
0.16	11.11786729
0.17	11.68901984
0.18	12.24272045
0.19	12.77858527
0.2	13.29625225
0.21	13.79538126
0.22	14.27565422
0.23	14.73677518
0.24	15.17847045
0.25	15.6004886
0.26	16.00260053
0.27	16.38459943
0.28	16.74630083
0.29	17.08754252
0.3	17.4081845
0.31	17.70810892
0.32	17.98721994
0.33	18.24544364
0.34	18.48272786
0.35	18.69904206
0.36	18.89437709
0.37	19.06874502
0.38	19.22217894
0.39	19.35473264
0.4	19.46648045
0.41	19.55751685
0.42	19.62795628
0.43	19.67793277
0.44	19.70759959
0.45	19.71712898
0.46	19.70671169
0.47	19.67655671
0.48	19.62689077
0.49	19.55795802
0.5	19.47001958
0.51	19.36335309
0.52	19.23825229
0.53	19.09502657
0.54	18.93400048
0.55	18.75551325
0.56	18.55991834
0.57	18.3475829
0.58	18.11888729
0.59	17.87422456
0.6	17.6139999
0.61	17.33863018
0.62	17.04854334
0.63	16.74417788
0.64	16.42598232
0.65	16.09441465
0.66	15.74994175
0.67	15.39303886
0.68	15.024189
0.69	14.64388242
0.7	14.25261601
0.71	13.85089277
0.72	13.43922121
0.73	13.01811481
0.74	12.58809142
0.75	12.14967274
0.76	11.70338371
0.77	11.24975199
0.78	10.78930736
0.79	10.3225812
0.8	9.850105934
0.81	9.37241447
0.82	8.890039663
0.83	8.403513784
0.84	7.913367988
0.85	7.420131787
0.86	6.924332538
0.87	6.42649493
0.88	5.927140486
0.89	5.426787063
0.9	4.925948374
0.91	4.425133508
0.92	3.924846464
0.93	3.425585697
0.94	2.927843666
0.95	2.432106403
0.96	1.938853084
0.97	1.448555618
0.98	0.9616782392
0.99	0.4786771228
1	1.856964578e-15
1.01	-0.4739142058
1.02	-0.9426357342
1.03	-1.405744329
1.04	-1.862829567
1.05	-2.313491174
1.06	-2.757339325
1.07	-3.193994933
1.08	-3.623089928
1.09	-4.044267512
1.1	-4.457182408
1.11	-4.861501096
1.12	-5.256902028
1.13	-5.643075835
1.14	-6.019725516
1.15	-6.386566615
1.16	-6.74332738
1.17	-7.089748915
1.18	-7.425585309
1.19	-7.750603753
1.2	-8.06458465
1.21	-8.367321698
1.22	-8.65862197
1.23	-8.938305974
1.24	-9.206207698
1.25	-9.462174645
1.26	-9.706067854
1.27	-9.937761899
1.28	-10.15714489
1.29	-10.36411844
1.3	-10.55859763
1.31	-10.74051099
1.32	-10.90980038
1.33	-11.06642097
1.34	-11.21034112
1.35	-11.34154231
1.36	-11.460019
1.37	-11.5657785
1.38	-11.65884087
1.39	-11.73923876
1.4	-11.80701723
1.41	-11.8622336
1.42	-11.90495727
1.43	-11.93526954
1.44	-11.95326338
1.45	-11.95904325
1.46	-11.95272484
1.47	-11.93443492
1.48	-11.904311
1.49	-11.86250118
1.5	-11.80916382
1.51	-11.74446732
1.52	-11.66858985
1.53	-11.58171906
1.54	-11.4840518
1.55	-11.37579382
1.56	-11.25715951
1.57	-11.12837156
1.58	-10.98966066
1.59	-10.84126521
1.6	-10.68343098
1.61	-10.5164108
1.62	-10.34046424
1.63	-10.15585725
1.64	-9.962861894
1.65	-9.761755935
1.66	-9.552822561
1.67	-9.336350015
1.68	-9.112631267
1.69	-8.881963663
1.7	-8.64464859
1.71	-8.400991128
1.72	-8.151299707
1.73	-7.895885763
1.74	-7.635063395
1.75	-7.369149023
1.76	-7.098461045
1.77	-6.823319494
1.78	-6.544045708
1.79	-6.260961985
1.8	-5.974391251
1.81	-5.684656732
1.82	-5.392081622
1.83	-5.096988759
1.84	-4.799700306
1.85	-4.500537428
1.86	-4.199819982
1.87	-3.89786621
1.88	-3.594992429
1.89	-3.291512737
1.9	-2.987738717
1.91	-2.683979146
1.92	-2.380539715
1.93	-2.077722753
1.94	-1.77582695
1.95	-1.475147101
1.96	-1.17597384
1.97	-0.8785933943
1.98	-0.5832873369
1.99	-0.2903323511
2	-2.252611901e-15
2.01	0.2874434959
2.02	0.5717374737
2.03	0.8526270354
2.04	1.129863246
2.05	1.403203328
2.06	1.67241084
2.07	1.937255854
2.08	2.197515124
2.09	2.452972242
2.1	2.703417786
2.11	2.948649467
2.12	3.188472255
2.13	3.422698509
2.14	3.651148089
2.15	3.873648462
2.16	4.090034805
2.17	4.300150087
2.18	4.503845156
2.19	4.700978807
2.2	4.891417848
2.21	5.075037149
2.22	5.251719696
2.23	5.421356619
2.24	5.583847228
2.25	5.73909903
2.26	5.887027739
2.27	6.027557281
2.28	6.16061979
2.29	6.286155592
2.3	6.404113187
2.31	6.514449214
2.32	6.617128419
2.33	6.71212361
2.34	6.799415597
2.35	6.878993142
2.36	6.950852883
2.37	7.014999263
2.38	7.071444446
2.39	7.120208229
2.4	7.161317948
2.41	7.19480837
2.42	7.220721589
2.43	7.23910691
2.44	7.250020725
2.45	7.253526389
2.46	7.249694085
2.47	7.238600685
2.48	7.220329607
2.49	7.194970667
2.5	7.162619922
2.51	7.123379513
2.52	7.077357502
2.53	7.024667704
2.54	6.965429514
2.55	6.899767733
2.56	6.827812387
2.57	6.749698544
2.58	6.665566131
2.59	6.575559741
2.6	6.479828442
2.61	6.378525582
2.62	6.271808596
2.63	6.159838801
2.64	6.042781197
2.65	5.920804267
2.66	5.79407977
2.67	5.662782534
2.68	5.527090254
2.69	5.38718328
2.7	5.243244412
2.71	5.095458691
2.72	4.944013189
2.73	4.789096801
2.74	4.630900038
2.75	4.469614819
2.76	4.30543426
2.77	4.138552474
2.78	3.969164361
2.79	3.797465403
2.8	3.623651467
2.81	3.447918598
2.82	3.270462823
2.83	3.091479955
2.84	2.911165393
2.85	2.729713935
2.86	2.547319584
2.87	2.364175364
2.88	2.18047313
2.89	1.996403392
2.9	1.812155135
2.91	1.627915642
2.92	1.443870324
2.93	1.260202552
2.94	1.077093492
2.95	0.8947219444
2.96	0.7132641892
2.97	0.5328938311
2.98	0.3537816532
2.99	0.1760954724
3	2.049417273e-15
3.01	-0.1743432932
3.02	-0.3467763071
3.03	-0.5171444382
3.04	-0.6852967003
3.05	-0.8510858403
3.06	-1.01436845
3.07	-1.175005071
3.08	-1.332860298
3.09	-1.487802872
3.1	-1.639705773
3.11	-1.788446306
3.12	-1.93390618
3.13	-2.075971585
3.14	-2.214533259
3.15	-2.349486557
3.16	-2.480731508
3.17	-2.608172869
3.18	-2.731720174
3.19	-2.851287777
3.2	-2.966794894
3.21	-3.07816563
3.22	-3.185329012
3.23	-3.288219007
3.24	-3.386774543
3.25	-3.480939521
3.26	-3.570662818
3.27	-3.655898294
3.28	-3.736604785
3.29	-3.812746099
3.3	-3.884290996
3.31	-3.951213179
3.32	-4.013491266
3.33	-4.071108761
3.34	-4.124054028
3.35	-4.172320249
3.36	-4.215905385
3.37	-4.254812131
3.38	-4.289047865
3.39	-4.318624595
3.4	-4.343558899
3.41	-4.363871867
3.42	-4.379589029
3.43	-4.39074029
3.44	-4.397359853
3.45	-4.399486146
3.46	-4.397161736
3.47	-4.390433249
3.48	-4.37935128
3.49	-4.363970305
3.5	-4.344348586
3.51	-4.320548075
3.52	-4.292634315
3.53	-4.260676337
3.54	-4.224746558
3.55	-4.184920675
3.56	-4.141277551
3.57	-4.093899111
3.58	-4.042870223
3.59	-3.988278588
3.6	-3.930214619
3.61	-3.868771329
3.62	-3.804044205
3.63	-3.736131092
3.64	-3.665132066
3.65	-3.591149318
3.66	-3.514287025
3.67	-3.434651226
3.68	-3.352349698
3.69	-3.267491829
3.7	-3.180188492
3.71	-3.090551921
3.72	-2.998695581
3.73	-2.904734042
3.74	-2.808782855
3.75	-2.710958425
3.76	-2.611377882
3.77	-2.510158963
3.78	-2.407419878
3.79	-2.303279196
3.8	-2.197855715
3.81	-2.091268342
3.82	-1.983635974
3.83	-1.875077376
3.84	-1.765711066
3.85	-1.655655194
3.86	-1.545027428
3.87	-1.433944843
3.88	-1.322523806
3.89	-1.210879866
3.9	-1.099127649
3.91	-0.9873807482
3.92	-0.8757516201
3.93	-0.7643514852
3.94	-0.6532902261
3.95	-0.5426762912
3.96	-0.4326165992
3.97	-0.3232164469
3.98	-0.2145794195
3.99	-0.1068073031
4	-1.657379214e-15
4.01	0.1057445526
4.02	0.2103304623
4.03	0.3136639573
4.04	0.4156534597
4.05	0.5162096562
4.06	0.6152455651
4.07	0.712676601
4.08	0.8084206359
4.09	0.9023980575
4.1	0.9945318244
4.11	1.084747518
4.12	1.172973391
4.13	1.259140415
4.14	1.343182318
4.15	1.425035632
4.16	1.504639718
4.17	1.581936811
4.18	1.656872039
4.19	1.729393457
4.2	1.799452064
4.21	1.86700183
4.22	1.931999707
4.23	1.994405643
4.24	2.054182598
4.25	2.111296544
4.26	2.165716475
4.27	2.217414404
4.28	2.266365366
4.29	2.312547406
4.3	2.35594158
4.31	2.396531936
4.32	2.434305505
4.33	2.469252283
4.34	2.50136521
4.35	2.530640153
4.36	2.557075874
4.37	2.580674009
4.38	2.601439031
4.39	2.619378224
4.4	2.634501645
4.41	2.646822082
4.42	2.656355023
4.43	2.663118604
4.44	2.667133573
4.45	2.668423235
4.46	2.667013409
4.47	2.662932375
4.48	2.656210821
4.49	2.646881788
4.5	2.634980614
4.51	2.620544874
4.52	2.603614323
4.53	2.584230829
4.54	2.562438317
4.55	2.538282698
4.56	2.511811805
4.57	2.483075329
4.58	2.452124743
4.59	2.419013243
4.6	2.383795666
4.61	2.346528427
4.62	2.307269441
4.63	2.266078056
4.64	2.22301497
4.65	2.178142165
4.66	2.131522828
4.67	2.083221274
4.68	2.033302874
4.69	1.981833975
4.7	1.928881824
4.71	1.874514496
4.72	1.818800809
4.73	1.761810255
4.74	1.703612918
4.75	1.644279402
4.76	1.58388075
4.77	1.522488372
4.78	1.460173967
4.79	1.39700945
4.8	1.333066877
4.81	1.268418367
4.82	1.203136036
4.83	1.137291918
4.84	1.070957898
4.85	1.004205637
4.86	0.9371065052
4.87	0.8697315116
4.88	0.8021512364
4.89	0.7344357642
4.9	0.6666546183
4.91	0.5988766966
4.92	0.5311702079
4.93	0.4636026106
4.94	0.3962405518
4.95	0.3291498089
4.96	0.2623952313
4.97	0.1960406848
4.98	0.1301489969
4.99	0.06478190399
5	1.256564135e-15
5.01	-0.06413731327
5.02	-0.1275718741
5.03	-0.1902468069
5.04	-0.2521065671
5.05	-0.3130969833
5.06	-0.3731652985
5.07	-0.432260209
5.08	-0.4903319016
5.09	-0.5473320892
5.1	-0.6032140436
5.11	-0.6579326277
5.12	-0.7114443249
5.13	-0.7637072665
5.14	-0.8146812578
5.15	-0.8643278017
5.16	-0.912610121
5.17	-0.9594931776
5.18	-1.004943691
5.19	-1.048930154
5.2	-1.091422848
5.21	-1.132393852
5.22	-1.171817057
5.23	-1.209668171
5.24	-1.245924726
5.25	-1.280566086
5.26	-1.313573442
5.27	-1.344929821
5.28	-1.37462008
5.29	-1.402630904
5.3	-1.428950801
5.31	-1.453570096
5.32	-1.476480924
5.33	-1.497677216
5.34	-1.517154691
5.35	-1.534910842
5.36	-1.550944917
5.37	-1.565257909
5.38	-1.577852532
5.39	-1.588733203
5.4	-1.597906021
5.41	-1.605378744
5.42	-1.611160764
5.43	-1.615263084
5.44	-1.617698285
5.45	-1.618480505
5.46	-1.617625402
5.47	-1.61515013
5.48	-1.611073302
5.49	-1.605414957
5.5	-1.59819653
5.51	-1.589440811
5.52	-1.579171913
5.53	-1.56741523
5.54	-1.554197403
5.55	-1.539546279
5.56	-1.523490871
5.57	-1.506061317
5.58	-1.487288838
5.59	-1.467205698
5.6	-1.445845158
5.61	-1.423241435
5.62	-1.399429656
5.63	-1.374445818
5.64	-1.348326736
5.65	-1.321110004
5.66	-1.292833947
5.67	-1.263537574
5.68	-1.233260533
5.69	-1.202043068
5.7	-1.169925965
5.71	-1.136950514
5.72	-1.103158455
5.73	-1.068591936
5.74	-1.033293467
5.75	-0.9973058703
5.76	-0.960672236
5.77	-0.9234358764
5.78	-0.8856402794
5.79	-0.8473290635
5.8	-0.8085459321
5.81	-0.7693346289
5.82	-0.7297388935
5.83	-0.6898024174
5.84	-0.6495688004
5.85	-0.6090815075
5.86	-0.5683838268
5.87	-0.5275188275
5.88	-0.4865293186
5.89	-0.4454578086
5.9	-0.4043464655
5.91	-0.3632370779
5.92	-0.3221710166
5.93	-0.2811891972
5.94	-0.2403320433
5.95	-0.1996394508
5.96	-0.1591507528
5.97	-0.1189046859
5.98	-0.07893935694
5.99	-0.03929221096
6	-9.145736087e-16
6.01	0.03890124693
6.02	0.07737625295
6.03	0.1153905213
6.04	0.1529103625
6.05	0.1899029198
6.06	0.2263361947
6.07	0.2621790697
6.08	0.2974013318
6.09	0.3319736931
6.1	0.3658678118
6.11	0.3990563108
6.12	0.4315127957
6.13	0.4632118722
6.14	0.4941291607
6.15	0.5242413118
6.16	0.5535260187
6.17	0.58196203
6.18	0.6095291598
6.19	0.6362082984
6.2	0.6619814199
6.21	0.68683159
6.22	0.7107429725
6.23	0.7337008335
6.24	0.7556915462
6.25	0.7767025927
6.26	0.7967225664
6.27	0.8157411718
6.28	0.8337492242
6.29	0.8507386476
6.3	0.866702472
6.31	0.8816348295
6.32	0.8955309489
6.33	0.9083871498
6.34	0.9202008357
6.35	0.9309704853
6.36	0.9406956437
6.37	0.9493769122
6.38	0.957015937
6.39	0.9636153974
6.4	0.9691789928
6.41	0.9737114285
6.42	0.9772184014
6.43	0.979706584
6.44	0.9811836083
6.45	0.9816580484
6.46	0.9811394024
6.47	0.9796380739
6.48	0.9771653525
6.49	0.9737333931
6.5	0.9693551958
6.51	0.9640445839
6.52	0.9578161821
6.53	0.9506853933
6.54	0.9426683761
6.55	0.9337820204
6.56	0.9240439232
6.57	0.9134723642
6.58	0.9020862803
6.59	0.88990524
6.6	0.8769494175
6.61	0.8632395663
6.62	0.8487969928
6.63	0.8336435288
6.64	0.8178015049
6.65	0.8012937225
6.66	0.7841434268
6.67	0.7663742782
6.68	0.748010325
6.69	0.729075975
6.7	0.7095959676
6.71	0.6895953452
6.72	0.6690994252
6.73	0.648133772
6.74	0.6267241683
6.75	0.6048965874
6.76	0.5826771651
6.77	0.5600921713
6.78	0.537167983
6.79	0.5139310559
6.8	0.4904078976
6.81	0.46662504
6.82	0.4426090125
6.83	0.4183863153
6.84	0.393983393
6.85	0.3694266086
6.86	0.3447422175
6.87	0.3199563425
6.88	0.2950949486
6.89	0.2701838185
6.9	0.2452485285
6.91	0.2203144245
6.92	0.1954065992
6.93	0.1705498693
6.94	0.1457687528
6.95	0.1210874478
6.96	0.09652981106
6.97	0.07211933757
6.98	0.04787914024
6.99	0.02383193064
7	6.471697566e-16
7.01	-0.02359479896
7.02	-0.04693106975
7.03	-0.06998788902
7.04	-0.09274482303
7.05	-0.1151819433
7.06	-0.1372798415
7.07	-0.1590196441
7.08	-0.180383026
7.09	-0.2013522231
7.1	-0.2219100453
7.11	-0.2420398874
7.12	-0.2617257407
7.13	-0.2809522024
7.14	-0.2997044858
7.15	-0.3179684287
7.16	-0.3357305013
7.17	-0.352977814
7.18	-0.3696981234
7.19	-0.3858798389
7.2	-0.4015120273
7.21	-0.4165844174
7.22	-0.431087404
7.23	-0.4450120506
7.24	-0.4583500921
7.25	-0.471093936
7.26	-0.4832366638
7.27	-0.4947720311
7.28	-0.505694467
7.29	-0.5159990732
7.3	-0.5256816221
7.31	-0.5347385547
7.32	-0.5431669772
7.33	-0.5509646573
7.34	-0.55813002
7.35	-0.5646621426
7.36	-0.5705607494
7.37	-0.5758262049
7.38	-0.5804595076
7.39	-0.5844622827
7.4	-0.5878367739
7.41	-0.5905858351
7.42	-0.5927129217
7.43	-0.5942220807
7.44	-0.5951179412
7.45	-0.5954057037
7.46	-0.595091129
7.47	-0.5941805273
7.48	-0.5926807459
7.49	-0.5905991573
7.5	-0.5879436464
7.51	-0.5847225975
7.52	-0.5809448808
7.53	-0.5766198388
7.54	-0.5717572721
7.55	-0.5663674249
7.56	-0.5604609704
7.57	-0.5540489957
7.58	-0.5471429867
7.59	-0.5397548123
7.6	-0.5318967087
7.61	-0.5235812636
7.62	-0.5148214
7.63	-0.5056303595
7.64	-0.4960216863
7.65	-0.4860092101
7.66	-0.4756070299
7.67	-0.4648294965
7.68	-0.4536911959
7.69	-0.4422069321
7.7	-0.4303917104
7.71	-0.4182607196
7.72	-0.4058293158
7.73	-0.3931130043
7.74	-0.3801274233
7.75	-0.3668883262
7.76	-0.3534115653
7.77	-0.3397130742
7.78	-0.3258088511
7.79	-0.3117149424
7.8	-0.2974474257
7.81	-0.2830223933
7.82	-0.2684559363
7.83	-0.2537641278
7.84	-0.2389630073
7.85	-0.2240685646
7.86	-0.2090967246
7.87	-0.1940633315
7.88	-0.1789841338
7.89	-0.1638747697
7.9	-0.1487507518
7.91	-0.1336274532
7.92	-0.1185200936
7.93	-0.1034437247
7.94	-0.08841321779
7.95	-0.07344324958
7.96	-0.05854828999
7.97	-0.04374258939
7.98	-0.02904016652
7.99	-0.01445479661
8	-4.486037708e-16
8.01	0.01431096898
8.02	0.02846513269
8.03	0.0424498005
8.04	0.0562525787
8.05	0.06986138003
8.06	0.08326443281
8.07	0.09645028965
8.08	0.1094078357
8.09	0.1221262967
8.1	0.1345952461
8.11	0.1468046126
8.12	0.1587446862
8.13	0.1704061247
8.14	0.1817799595
8.15	0.1928576008
8.16	0.2036308424
8.17	0.2140918664
8.18	0.2242332467
8.19	0.2340479533
8.2	0.2435293548
8.21	0.2526712215
8.22	0.2614677275
8.23	0.2699134526
8.24	0.2780033837
8.25	0.2857329158
8.26	0.2930978525
8.27	0.3000944064
8.28	0.3067191987
8.29	0.3129692583
8.3	0.3188420211
8.31	0.3243353284
8.32	0.329447425
8.33	0.334176957
8.34	0.3385229692
8.35	0.3424849019
8.36	0.3460625877
8.37	0.3492562479
8.38	0.3520664881
8.39	0.3544942939
8.4	0.3565410263
8.41	0.3582084162
8.42	0.3594985594
8.43	0.3604139106
8.44	0.3609572775
8.45	0.3611318142
8.46	0.3609410151
8.47	0.3603887072
8.48	0.3594790438
8.49	0.3582164965
8.5	0.3566058477
8.51	0.3546521828
8.52	0.3523608818
8.53	0.3497376112
8.54	0.3467883154
8.55	0.3435192078
8.56	0.3399367621
8.57	0.3360477029
8.58	0.3318589967
8.59	0.3273778424
8.6	0.3226116616
8.61	0.3175680893
8.62	0.3122549634
8.63	0.3066803155
8.64	0.3008523606
8.65	0.2947794869
8.66	0.2884702456
8.67	0.2819333412
8.68	0.2751776203
8.69	0.2682120623
8.7	0.261045768
8.71	0.2536879502
8.72	0.2461479226
8.73	0.2384350898
8.74	0.2305589368
8.75	0.2225290186
8.76	0.2143549499
8.77	0.206046395
8.78	0.1976130574
8.79	0.1890646696
8.8	0.1804109833
8.81	0.1716617589
8.82	0.1628267562
8.83	0.1539157239
8.84	0.1449383905
8.85	0.1359044543
8.86	0.1268235743
8.87	0.1177053605
8.88	0.1085593648
8.89	0.09939507217
8.9	0.09022189159
8.91	0.08104914736
8.92	0.07188607053
8.93	0.06274179061
8.94	0.05362532731
8.95	0.04454558262
8.96	0.03551133295
8.97	0.0265312216
8.98	0.01761375136
8.99	0.008767277325
9	3.061034337e-16
9.01	-0.008680041458
9.02	-0.01726497571
9.03	-0.0257471055
9.04	-0.03411891367
9.05	-0.04237306892
9.06	-0.05050243137
9.07	-0.05850005781
9.08	-0.06635920679
9.09	-0.07407334331
9.1	-0.08163614344
9.11	-0.08904149853
9.12	-0.09628351922
9.13	-0.1033565392
9.14	-0.1102551188
9.15	-0.1169740479
9.16	-0.1235083492
9.17	-0.1298532809
9.18	-0.1360043391
9.19	-0.1419572595
9.2	-0.1477080202
9.21	-0.1532528427
9.22	-0.1585881933
9.23	-0.1637107845
9.24	-0.1686175757
9.25	-0.1733057739
9.26	-0.1777728338
9.27	-0.1820164583
9.28	-0.1860345979
9.29	-0.1898254507
9.3	-0.1933874614
9.31	-0.1967193207
9.32	-0.199819964
9.33	-0.2026885702
9.34	-0.2053245598
9.35	-0.2077275935
9.36	-0.2098975696
9.37	-0.2118346225
9.38	-0.2135391193
9.39	-0.215011658
9.4	-0.2162530639
9.41	-0.217264387
9.42	-0.2180468984
9.43	-0.218602087
9.44	-0.2189316557
9.45	-0.2190375175
9.46	-0.218921792
9.47	-0.2185868003
9.48	-0.2180350616
9.49	-0.2172692879
9.5	-0.2162923801
9.51	-0.2151074224
9.52	-0.2137176781
9.53	-0.2121265841
9.54	-0.2103377457
9.55	-0.2083549318
9.56	-0.2061820686
9.57	-0.2038232349
9.58	-0.2012826562
9.59	-0.1985646987
9.6	-0.195673864
9.61	-0.1926147827
9.62	-0.1893922089
9.63	-0.1860110141
9.64	-0.1824761807
9.65	-0.1787927966
9.66	-0.1749660484
9.67	-0.1710012154
9.68	-0.1669036636
9.69	-0.1626788391
9.7	-0.1583322619
9.71	-0.1538695198
9.72	-0.1492962619
9.73	-0.1446181923
9.74	-0.139841064
9.75	-0.1349706724
9.76	-0.1300128492
9.77	-0.1249734559
9.78	-0.1198583781
9.79	-0.1146735188
9.8	-0.1094247927
9.81	-0.1041181199
9.82	-0.09875941984
9.83	-0.09335460554
9.84	-0.08790957758
9.85	-0.08243021833
9.86	-0.07692238619
9.87	-0.07139190993
9.88	-0.06584458314
9.89	-0.06028615869
9.9	-0.05472234343
9.91	-0.04915879282
9.92	-0.04360110578
9.93	-0.03805481965
9.94	-0.03252540515
9.95	-0.02701826161
9.96	-0.0215387122
9.97	-0.01609199934
9.98	-0.01068328023
9.99	-0.0053176225
10	-2.062901306e-16
10.01	0.005264711272
10.02	0.01047173711
10.03	0.01561640889
10.04	0.02069416722
10.05	0.02570056544
10.06	0.03063127301
10.07	0.03548207866
10.08	0.04024889347
10.09	0.04492775379
10.1	0.04951482394
10.11	0.05400639884
10.12	0.05839890643
10.13	0.06268890992
10.14	0.06687310992
10.15	0.07094834642
10.16	0.07491160053
10.17	0.07875999616
10.18	0.08249080149
10.19	0.08610143026
10.2	0.08958944295
10.21	0.09295254777
10.22	0.09618860149
10.23	0.09929561012
10.24	0.1022717294
10.25	0.1051152654
10.26	0.1078246742
10.27	0.1103985625
10.28	0.1128356874
10.29	0.1151349558
10.3	0.1172954245
10.31	0.1193162994
10.32	0.1211969346
10.33	0.1229368322
10.34	0.1245356407
10.35	0.1259931543
10.36	0.1273093114
10.37	0.1284841933
10.38	0.1295180229
10.39	0.1304111627
10.4	0.1311641135
10.41	0.131777512
10.42	0.1322521291
10.43	0.132588868
10.44	0.1327887615
10.45	0.13285297
10.46	0.1327827789
10.47	0.1325795962
10.48	0.1322449497
10.49	0.1317804845
10.5	0.13118796
10.51	0.1304692468
10.52	0.1296263243
10.53	0.128661277
10.54	0.1275762917
