temps	angle
0	0
0.01	1.000190343
0.02	1.989775154
0.03	2.96821342
0.04	3.93497679
0.05	4.8895498
0.06	5.831430079
0.07	6.760128549
0.08	7.675169607
0.09	8.576091309
0.1	9.46244553
0.11	10.33379812
0.12	11.18972906
0.13	12.02983257
0.14	12.85371727
0.15	13.66100624
0.16	14.45133718
0.17	15.22436246
0.18	15.97974923
0.19	16.71717946
0.2	17.43635002
0.21	18.13697274
0.22	18.81877442
0.23	19.48149688
0.24	20.12489696
0.25	20.74874658
0.26	21.35283267
0.27	21.9369572
0.28	22.50093716
0.29	23.04460451
0.3	23.56780617
0.31	24.07040394
0.32	24.55227447
0.33	25.01330916
0.34	25.45341411
0.35	25.87251005
0.36	26.2705322
0.37	26.6474302
0.38	27.00316799
0.39	27.33772371
0.4	27.65108953
0.41	27.94327157
0.42	28.21428971
0.43	28.46417746
0.44	28.69298181
0.45	28.90076306
0.46	29.08759464
0.47	29.25356294
0.48	29.3987671
0.49	29.52331888
0.5	29.62734239
0.51	29.71097392
0.52	29.77436174
0.53	29.81766587
0.54	29.84105784
0.55	29.84472051
0.56	29.82884778
0.57	29.79364442
0.58	29.73932576
0.59	29.66611749
0.6	29.57425541
0.61	29.46398512
0.62	29.33556185
0.63	29.18925013
0.64	29.02532353
0.65	28.84406444
0.66	28.64576373
0.67	28.43072054
0.68	28.19924195
0.69	27.95164273
0.7	27.68824505
0.71	27.40937821
0.72	27.11537831
0.73	26.80658802
0.74	26.48335625
0.75	26.14603789
0.76	25.79499347
0.77	25.43058893
0.78	25.05319529
0.79	24.66318836
0.8	24.26094846
0.81	23.8468601
0.82	23.42131172
0.83	22.98469539
0.84	22.53740649
0.85	22.07984346
0.86	21.61240746
0.87	21.13550213
0.88	20.64953329
0.89	20.15490861
0.9	19.65203739
0.91	19.14133023
0.92	18.62319877
0.93	18.0980554
0.94	17.566313
0.95	17.02838462
0.96	16.48468329
0.97	15.93562167
0.98	15.38161181
0.99	14.82306493
1	14.26039107
1.01	13.69399894
1.02	13.12429558
1.03	12.55168615
1.04	11.97657367
1.05	11.39935881
1.06	10.8204396
1.07	10.24021123
1.08	9.659065826
1.09	9.077392197
1.1	8.495575635
1.11	7.913997688
1.12	7.333035956
1.13	6.753063876
1.14	6.174450523
1.15	5.597560413
1.16	5.022753309
1.17	4.450384032
1.18	3.880802282
1.19	3.314352456
1.2	2.751373479
1.21	2.192198636
1.22	1.63715541
1.23	1.086565327
1.24	0.5407438024
1.25	2.622024781e-15
1.26	-0.5353633117
1.27	-1.065049892
1.28	-1.588770155
1.29	-2.106241298
1.3	-2.617187411
1.31	-3.121339595
1.32	-3.618436064
1.33	-4.108222248
1.34	-4.590450885
1.35	-5.064882112
1.36	-5.531283545
1.37	-5.989430362
1.38	-6.439105368
1.39	-6.880099065
1.4	-7.312209713
1.41	-7.735243381
1.42	-8.149013999
1.43	-8.553343399
1.44	-8.948061358
1.45	-9.333005622
1.46	-9.708021939
1.47	-10.07296408
1.48	-10.42769385
1.49	-10.7720811
1.5	-11.10600374
1.51	-11.42934772
1.52	-11.74200705
1.53	-12.04388377
1.54	-12.33488793
1.55	-12.6149376
1.56	-12.8839588
1.57	-13.14188551
1.58	-13.38865959
1.59	-13.6242308
1.6	-13.84855669
1.61	-14.06160259
1.62	-14.26334155
1.63	-14.45375427
1.64	-14.63282904
1.65	-14.80056168
1.66	-14.95695546
1.67	-15.10202101
1.68	-15.23577629
1.69	-15.35824643
1.7	-15.46946372
1.71	-15.56946746
1.72	-15.65830389
1.73	-15.73602608
1.74	-15.80269384
1.75	-15.85837361
1.76	-15.90313834
1.77	-15.9370674
1.78	-15.96024643
1.79	-15.97276725
1.8	-15.97472773
1.81	-15.96623167
1.82	-15.94738867
1.83	-15.91831399
1.84	-15.87912843
1.85	-15.8299582
1.86	-15.77093477
1.87	-15.70219474
1.88	-15.62387972
1.89	-15.53613614
1.9	-15.43911514
1.91	-15.33297242
1.92	-15.21786809
1.93	-15.09396653
1.94	-14.96143622
1.95	-14.8204496
1.96	-14.67118293
1.97	-14.51381613
1.98	-14.3485326
1.99	-14.1755191
2	-13.99496559
2.01	-13.80706505
2.02	-13.61201336
2.03	-13.4100091
2.04	-13.20125344
2.05	-12.98594993
2.06	-12.7643044
2.07	-12.53652477
2.08	-12.30282089
2.09	-12.0634044
2.1	-11.81848855
2.11	-11.56828809
2.12	-11.31301906
2.13	-11.05289869
2.14	-10.78814517
2.15	-10.51897761
2.16	-10.24561576
2.17	-9.968279979
2.18	-9.687190989
2.19	-9.402569789
2.2	-9.11463748
2.21	-8.823615128
2.22	-8.529723618
2.23	-8.233183512
2.24	-7.934214907
2.25	-7.633037297
2.26	-7.329869436
2.27	-7.0249292
2.28	-6.718433457
2.29	-6.410597933
2.3	-6.10163708
2.31	-5.791763956
2.32	-5.481190092
2.33	-5.170125372
2.34	-4.858777915
2.35	-4.54735395
2.36	-4.236057708
2.37	-3.925091301
2.38	-3.614654617
2.39	-3.304945207
2.4	-2.996158183
2.41	-2.688486111
2.42	-2.382118915
2.43	-2.077243773
2.44	-1.77404503
2.45	-1.472704099
2.46	-1.173399373
2.47	-0.8763061434
2.48	-0.5815965089
2.49	-0.2894393001
2.5	-2.806937459e-15
2.51	0.286559331
2.52	0.5700801264
2.53	0.8504073829
2.54	1.127389726
2.55	1.400879472
2.56	1.67073269
2.57	1.936809257
2.58	2.198972909
2.59	2.457091298
2.6	2.711036034
2.61	2.960682732
2.62	3.205911052
2.63	3.446604738
2.64	3.682651654
2.65	3.913943817
2.66	4.140377422
2.67	4.361852874
2.68	4.578274807
2.69	4.789552105
2.7	4.995597922
2.71	5.196329691
2.72	5.391669142
2.73	5.581542305
2.74	5.765879516
2.75	5.944615424
2.76	6.117688986
2.77	6.285043466
2.78	6.44662643
2.79	6.602389735
2.8	6.75228952
2.81	6.896286192
2.82	7.034344409
2.83	7.166433058
2.84	7.29252524
2.85	7.412598236
2.86	7.526633491
2.87	7.634616575
2.88	7.73653716
2.89	7.832388978
2.9	7.922169789
2.91	8.005881344
2.92	8.083529341
2.93	8.15512338
2.94	8.220676925
2.95	8.28020725
2.96	8.333735394
2.97	8.381286106
2.98	8.422887796
2.99	8.458572478
3	8.488375712
3.01	8.512336547
3.02	8.530497462
3.03	8.542904302
3.04	8.549606215
3.05	8.550655586
3.06	8.546107974
3.07	8.536022042
3.08	8.520459486
3.09	8.499484966
3.1	8.473166037
3.11	8.441573072
3.12	8.40477919
3.13	8.362860179
3.14	8.315894423
3.15	8.263962822
3.16	8.207148719
3.17	8.145537812
3.18	8.079218085
3.19	8.008279721
3.2	7.932815024
3.21	7.852918335
3.22	7.768685954
3.23	7.680216055
3.24	7.587608604
3.25	7.490965274
3.26	7.390389364
3.27	7.285985716
3.28	7.177860628
3.29	7.066121772
3.3	6.95087811
3.31	6.832239809
3.32	6.710318158
3.33	6.585225484
3.34	6.457075069
3.35	6.325981064
3.36	6.192058409
3.37	6.055422745
3.38	5.91619034
3.39	5.774477997
3.4	5.630402981
3.41	5.48408293
3.42	5.335635781
3.43	5.185179687
3.44	5.032832937
3.45	4.878713878
3.46	4.722940838
3.47	4.565632049
3.48	4.406905568
3.49	4.246879205
3.5	4.085670448
3.51	3.923396385
3.52	3.760173639
3.53	3.59611829
3.54	3.431345807
3.55	3.26597098
3.56	3.100107849
3.57	2.933869638
3.58	2.767368692
3.59	2.600716407
3.6	2.434023171
3.61	2.2673983
3.62	2.100949977
3.63	1.934785194
3.64	1.769009693
3.65	1.603727909
3.66	1.439042916
3.67	1.275056373
3.68	1.111868469
3.69	0.9495778771
3.7	0.7882816996
3.71	0.6280754248
3.72	0.4690528782
3.73	0.3113061782
3.74	0.1549256933
3.75	2.253668031e-15
3.76	-0.1533841569
3.77	-0.3051419028
3.78	-0.4551902706
3.79	-0.6034482352
3.8	-0.7498367475
3.81	-0.8942787665
3.82	-1.036699289
3.83	-1.177025381
3.84	-1.315186198
3.85	-1.451113021
3.86	-1.584739269
3.87	-1.716000529
3.88	-1.844834575
3.89	-1.971181385
3.9	-2.094983158
3.91	-2.216184334
3.92	-2.3347316
3.93	-2.450573913
3.94	-2.563662502
3.95	-2.67395088
3.96	-2.781394854
3.97	-2.885952527
3.98	-2.987584308
3.99	-3.086252907
4	-3.181923344
4.01	-3.274562946
4.02	-3.364141344
4.03	-3.450630472
4.04	-3.534004561
4.05	-3.614240134
4.06	-3.691315999
4.07	-3.765213237
4.08	-3.835915196
4.09	-3.903407477
4.1	-3.967677921
4.11	-4.028716594
4.12	-4.086515774
4.13	-4.141069932
4.14	-4.192375713
4.15	-4.240431918
4.16	-4.285239485
4.17	-4.326801462
4.18	-4.36512299
4.19	-4.400211274
4.2	-4.432075561
4.21	-4.460727112
4.22	-4.486179174
4.23	-4.508446954
4.24	-4.527547588
4.25	-4.543500109
4.26	-4.55632542
4.27	-4.566046258
4.28	-4.57268716
4.29	-4.576274436
4.3	-4.576836124
4.31	-4.574401963
4.32	-4.569003352
4.33	-4.560673316
4.34	-4.549446465
4.35	-4.535358957
4.36	-4.518448462
4.37	-4.498754115
4.38	-4.476316486
4.39	-4.451177528
4.4	-4.423380546
4.41	-4.392970147
4.42	-4.359992205
4.43	-4.324493814
4.44	-4.286523244
4.45	-4.246129902
4.46	-4.203364286
4.47	-4.158277941
4.48	-4.110923417
4.49	-4.06135422
4.5	-4.009624773
4.51	-3.955790368
4.52	-3.899907123
4.53	-3.842031934
4.54	-3.782222434
4.55	-3.720536946
4.56	-3.65703444
4.57	-3.591774483
4.58	-3.5248172
4.59	-3.456223226
4.6	-3.386053661
4.61	-3.314370029
4.62	-3.241234229
4.63	-3.166708493
4.64	-3.090855342
4.65	-3.013737543
4.66	-2.935418063
4.67	-2.85596003
4.68	-2.775426687
4.69	-2.693881347
4.7	-2.61138736
4.71	-2.52800806
4.72	-2.443806732
4.73	-2.35884657
4.74	-2.27319063
4.75	-2.1869018
4.76	-2.100042754
4.77	-2.012675914
4.78	-1.924863413
4.79	-1.836667058
4.8	-1.748148292
4.81	-1.659368156
4.82	-1.570387254
4.83	-1.48126572
4.84	-1.392063179
4.85	-1.30283872
4.86	-1.213650853
4.87	-1.124557486
4.88	-1.035615887
4.89	-0.9468826553
4.9	-0.8584136916
4.91	-0.7702641672
4.92	-0.6824884957
4.93	-0.5951403053
4.94	-0.508272411
4.95	-0.4219367886
4.96	-0.3361845491
4.97	-0.2510659136
4.98	-0.1666301896
4.99	-0.08292574789
5	-1.608402093e-15
5.01	0.08210062291
5.02	0.1633306908
5.03	0.2436457945
5.04	0.3230025644
5.05	0.4013586886
5.06	0.47867293
5.07	0.5549051426
5.08	0.6300162866
5.09	0.7039684433
5.1	0.7767248283
5.11	0.8482498047
5.12	0.9185088946
5.13	0.9874687902
5.14	1.055097364
5.15	1.121363678
5.16	1.186237992
5.17	1.249691772
5.18	1.311697693
5.19	1.372229653
5.2	1.431262768
5.21	1.488773383
5.22	1.544739072
5.23	1.599138644
5.24	1.65195214
5.25	1.703160835
5.26	1.75274724
5.27	1.800695102
5.28	1.846989396
5.29	1.89161633
5.3	1.934563337
5.31	1.975819075
5.32	2.015373416
5.33	2.053217448
5.34	2.089343462
5.35	2.123744952
5.36	2.156416599
5.37	2.187354271
5.38	2.216555007
5.39	2.244017013
5.4	2.269739646
5.41	2.293723408
5.42	2.315969932
5.43	2.336481967
5.44	2.355263372
5.45	2.372319096
5.46	2.387655166
5.47	2.401278673
5.48	2.413197757
5.49	2.42342159
5.5	2.431960359
5.51	2.438825253
5.52	2.444028443
5.53	2.447583062
5.54	2.449503192
5.55	2.449803842
5.56	2.448500929
5.57	2.445611261
5.58	2.441152514
5.59	2.435143214
5.6	2.427602714
5.61	2.418551178
5.62	2.408009554
5.63	2.395999557
5.64	2.382543642
5.65	2.36766499
5.66	2.351387476
5.67	2.333735656
5.68	2.314734736
5.69	2.294410555
5.7	2.272789557
5.71	2.249898772
5.72	2.225765791
5.73	2.200418741
5.74	2.173886262
5.75	2.146197484
5.76	2.117382003
5.77	2.087469858
5.78	2.056491501
5.79	2.024477783
5.8	1.991459921
5.81	1.957469478
5.82	1.922538341
5.83	1.88669869
5.84	1.849982981
5.85	1.81242392
5.86	1.774054437
5.87	1.734907664
5.88	1.695016912
5.89	1.654415646
5.9	1.613137462
5.91	1.571216066
5.92	1.528685246
5.93	1.485578853
5.94	1.441930778
5.95	1.397774929
5.96	1.353145205
5.97	1.308075483
5.98	1.262599585
5.99	1.216751264
6	1.170564182
6.01	1.124071884
6.02	1.077307785
6.03	1.03030514
6.04	0.9830970334
6.05	0.9357163521
6.06	0.8881957694
6.07	0.8405677248
6.08	0.792864405
6.09	0.745117726
6.1	0.6973593143
6.11	0.6496204894
6.12	0.6019322464
6.13	0.554325239
6.14	0.5068297627
6.15	0.4594757388
6.16	0.4122926985
6.17	0.3653097672
6.18	0.31855565
6.19	0.2720586168
6.2	0.2258464882
6.21	0.179946622
6.22	0.1343858996
6.23	0.08919071334
6.24	0.04438695428
6.25	1.076144503e-15
6.26	-0.0439452967
6.27	-0.08742461889
6.28	-0.130414196
6.29	-0.172890814
6.3	-0.214831825
6.31	-0.2562151563
6.32	-0.2970193193
6.33	-0.3372234176
6.34	-0.3768071546
6.35	-0.4157508412
6.36	-0.4540354022
6.37	-0.491642383
6.38	-0.5285539553
6.39	-0.5647529223
6.4	-0.6002227242
6.41	-0.6349474423
6.42	-0.6689118029
6.43	-0.7021011812
6.44	-0.7345016043
6.45	-0.7660997536
6.46	-0.7968829675
6.47	-0.8268392426
6.48	-0.8559572351
6.49	-0.8842262621
6.5	-0.9116363013
6.51	-0.9381779916
6.52	-0.9638426324
6.53	-0.9886221824
6.54	-1.012509259
6.55	-1.035497135
6.56	-1.05757974
6.57	-1.078751654
6.58	-1.099008104
6.59	-1.118344966
6.6	-1.136758757
6.61	-1.154246629
6.62	-1.170806372
6.63	-1.1864364
6.64	-1.201135752
6.65	-1.214904085
6.66	-1.227741668
6.67	-1.239649374
6.68	-1.250628676
6.69	-1.260681637
6.7	-1.269810908
6.71	-1.278019715
6.72	-1.285311853
6.73	-1.291691679
6.74	-1.297164102
6.75	-1.301734576
6.76	-1.305409089
6.77	-1.308194155
6.78	-1.310096806
6.79	-1.311124578
6.8	-1.311285504
6.81	-1.310588105
6.82	-1.309041377
6.83	-1.306654782
6.84	-1.303438235
6.85	-1.299402097
6.86	-1.294557159
6.87	-1.288914634
6.88	-1.282486145
6.89	-1.275283713
6.9	-1.267319745
6.91	-1.25860702
6.92	-1.249158681
6.93	-1.238988222
6.94	-1.228109471
6.95	-1.216536585
6.96	-1.204284031
6.97	-1.191366577
6.98	-1.177799278
6.99	-1.163597466
7	-1.148776731
7.01	-1.133352916
7.02	-1.117342098
7.03	-1.100760579
7.04	-1.08362487
7.05	-1.065951682
7.06	-1.047757909
7.07	-1.029060619
7.08	-1.009877036
7.09	-0.9902245332
7.1	-0.9701206164
7.11	-0.949582912
7.12	-0.9286291543
7.13	-0.9072771734
7.14	-0.8855448818
7.15	-0.8634502624
7.16	-0.8410113559
7.17	-0.8182462484
7.18	-0.795173059
7.19	-0.7718099282
7.2	-0.748175005
7.21	-0.7242864356
7.22	-0.7001623515
7.23	-0.6758208573
7.24	-0.6512800197
7.25	-0.626557856
7.26	-0.6016723226
7.27	-0.5766413038
7.28	-0.5514826011
7.29	-0.5262139225
7.3	-0.5008528713
7.31	-0.4754169364
7.32	-0.4499234811
7.33	-0.4243897341
7.34	-0.3988327784
7.35	-0.3732695428
7.36	-0.3477167911
7.37	-0.3221911141
7.38	-0.2967089193
7.39	-0.2712864228
7.4	-0.2459396403
7.41	-0.2206843787
7.42	-0.1955362278
7.43	-0.1705105523
7.44	-0.1456224839
7.45	-0.1208869139
7.46	-0.09631848595
7.47	-0.07193158858
7.48	-0.04774034863
7.49	-0.02375862455
7.5	-6.912223725e-16
7.51	0.02352222229
7.52	0.04679502639
7.53	0.06980568886
7.54	0.09254178409
7.55	0.1149911895
7.56	0.1371420906
7.57	0.1589829852
7.58	0.1805026882
7.59	0.2016903358
7.6	0.2225353891
7.61	0.243027638
7.62	0.2631572043
7.63	0.2829145451
7.64	0.302290456
7.65	0.3212760728
7.66	0.339862875
7.67	0.3580426872
7.68	0.3758076812
7.69	0.3931503779
7.7	0.4100636485
7.71	0.4265407156
7.72	0.4425751541
7.73	0.4581608924
7.74	0.4732922122
7.75	0.4879637489
7.76	0.502170492
7.77	0.5159077843
7.78	0.5291713216
7.79	0.5419571523
7.8	0.5542616759
7.81	0.5660816426
7.82	0.5774141511
7.83	0.5882566477
7.84	0.5986069243
7.85	0.608463116
7.86	0.6178236997
7.87	0.6266874911
7.88	0.6350536421
7.89	0.6429216384
7.9	0.6502912962
7.91	0.6571627591
7.92	0.6635364948
7.93	0.6694132914
7.94	0.6747942541
7.95	0.6796808008
7.96	0.6840746583
7.97	0.6879778585
7.98	0.6913927332
7.99	0.6943219102
8	0.6967683086
8.01	0.6987351338
8.02	0.7002258725
8.03	0.7012442879
8.04	0.7017944144
8.05	0.701880552
8.06	0.7015072613
8.07	0.7006793576
8.08	0.6994019051
8.09	0.6976802118
8.1	0.6955198225
8.11	0.692926514
8.12	0.6899062882
8.13	0.6864653662
8.14	0.6826101822
8.15	0.6783473769
8.16	0.6736837913
8.17	0.6686264601
8.18	0.6631826054
8.19	0.6573596299
8.2	0.6511651103
8.21	0.6446067907
8.22	0.6376925759
8.23	0.6304305243
8.24	0.6228288418
8.25	0.6148958742
8.26	0.6066401008
8.27	0.5980701275
8.28	0.5891946798
8.29	0.5800225959
8.3	0.5705628201
8.31	0.5608243953
8.32	0.5508164568
8.33	0.5405482248
8.34	0.5300289982
8.35	0.519268147
8.36	0.5082751059
8.37	0.4970593677
8.38	0.4856304759
8.39	0.4739980185
8.4	0.4621716209
8.41	0.4501609398
8.42	0.4379756558
8.43	0.4256254675
8.44	0.4131200847
8.45	0.4004692219
8.46	0.3876825922
8.47	0.3747699004
8.48	0.3617408375
8.49	0.3486050737
8.5	0.3353722531
8.51	0.3220519869
8.52	0.308653848
8.53	0.2951873649
8.54	0.2816620159
8.55	0.2680872234
8.56	0.2544723485
8.57	0.2408266852
8.58	0.2271594553
8.59	0.2134798027
8.6	0.1997967887
8.61	0.1861193863
8.62	0.172456476
8.63	0.15881684
8.64	0.1452091582
8.65	0.1316420032
8.66	0.1181238358
8.67	0.1046630006
8.68	0.09126772178
8.69	0.07794609873
8.7	0.06470610223
8.71	0.05155557038
8.72	0.03850220486
8.73	0.02555356721
8.74	0.01271707532
8.75	4.316487869e-16
8.76	-0.0125905383
8.77	-0.02504757267
8.78	-0.03736429274
8.79	-0.04953404755
8.8	-0.06155034838
8.81	-0.07340687132
8.82	-0.08509745975
8.83	-0.09661612675
8.84	-0.1079570573
8.85	-0.1191146103
8.86	-0.1300833207
8.87	-0.1408579011
8.88	-0.1514332436
8.89	-0.1618044213
8.9	-0.1719666897
8.91	-0.181915488
8.92	-0.1916464402
8.93	-0.2011553563
8.94	-0.2104382329
8.95	-0.2194912543
8.96	-0.2283107927
8.97	-0.2368934092
8.98	-0.2452358538
8.99	-0.2533350656
9	-0.2611881733
9.01	-0.2687924949
9.02	-0.2761455376
9.03	-0.2832449975
9.04	-0.2900887595
9.05	-0.2966748964
9.06	-0.3030016687
9.07	-0.3090675234
9.08	-0.3148710936
9.09	-0.3204111974
9.1	-0.3256868367
9.11	-0.3306971961
9.12	-0.3354416417
9.13	-0.3399197197
9.14	-0.3441311546
9.15	-0.3480758482
9.16	-0.3517538772
9.17	-0.3551654921
9.18	-0.3583111146
9.19	-0.3611913364
9.2	-0.3638069163
9.21	-0.3661587788
9.22	-0.3682480113
9.23	-0.370075862
9.24	-0.3716437375
9.25	-0.3729532002
9.26	-0.3740059658
9.27	-0.3748039008
9.28	-0.3753490193
9.29	-0.3756434808
9.3	-0.3756895869
9.31	-0.3754897788
9.32	-0.3750466339
9.33	-0.3743628629
9.34	-0.3734413068
9.35	-0.3722849338
9.36	-0.3708968358
9.37	-0.3692802254
9.38	-0.3674384326
9.39	-0.3653749013
9.4	-0.363093186
9.41	-0.3605969485
9.42	-0.3578899542
9.43	-0.3549760687
9.44	-0.3518592546
9.45	-0.3485435671
9.46	-0.3450331516
9.47	-0.3413322391
9.48	-0.337445143
9.49	-0.3333762556
9.5	-0.329130044
9.51	-0.3247110469
9.52	-0.3201238708
9.53	-0.315373186
9.54	-0.3104637233
9.55	-0.3054002701
9.56	-0.300187667
9.57	-0.2948308035
9.58	-0.289334615
9.59	-0.2837040787
9.6	-0.2779442101
9.61	-0.2720600593
9.62	-0.2660567072
9.63	-0.2599392623
9.64	-0.2537128565
9.65	-0.247382642
9.66	-0.2409537877
9.67	-0.2344314752
9.68	-0.2278208957
9.69	-0.2211272467
9.7	-0.2143557278
9.71	-0.2075115381
9.72	-0.2005998723
9.73	-0.1936259174
9.74	-0.1865948498
9.75	-0.1795118313
9.76	-0.1723820066
9.77	-0.1652104996
9.78	-0.1580024106
9.79	-0.150762813
9.8	-0.1434967502
9.81	-0.1362092328
9.82	-0.1289052356
9.83	-0.1215896945
9.84	-0.1142675042
9.85	-0.1069435145
9.86	-0.09962252861
9.87	-0.09230929969
9.88	-0.08500852864
9.89	-0.07772486145
9.9	-0.07046288669
9.91	-0.0632271331
9.92	-0.05602206723
9.93	-0.04885209114
9.94	-0.04172154015
9.95	-0.03463468071
9.96	-0.02759570825
9.97	-0.02060874517
9.98	-0.01367783889
9.99	-0.006806959901
10	-2.640513672e-16
10.01	0.006739229519
10.02	0.01340699953
10.03	0.01999966471
10.04	0.02651366505
10.05	0.0329455274
10.06	0.0392918668
10.07	0.04554938787
10.08	0.05171488602
10.09	0.0577852487
10.1	0.06375745646
10.11	0.06962858405
10.12	0.07539580135
10.13	0.08105637429
10.14	0.08660766568
10.15	0.09204713598
10.16	0.09737234396
10.17	0.1025809473
10.18	0.1076707034
10.19	0.1126394692
10.2	0.1174852023
10.21	0.1222059611
10.22	0.1267999046
10.23	0.1312652934
10.24	0.1356004891
10.25	0.1398039548
10.26	0.1438742548
10.27	0.1478100549
10.28	0.151610122
10.29	0.1552733238
10.3	0.1587986289
10.31	0.162185106
10.32	0.1654319241
10.33	0.1685383514
10.34	0.1715037552
10.35	0.1743276014
10.36	0.1770094536
10.37	0.1795489723
10.38	0.1819459147
10.39	0.1842001334
10.4	0.1863115757
10.41	0.1882802828
10.42	0.1901063887
10.43	0.1917901191
10.44	0.1933317907
10.45	0.1947318097
10.46	0.195990671
10.47	0.1971089566
10.48	0.1980873346
10.49	0.1989265578
10.5	0.1996274627
10.51	0.2001909676
10.52	0.2006180713
10.53	0.2009098522
10.54	0.2010674661
10.55	0.201092145
10.56	0.2009851954
10.57	0.200747997
10.58	0.2003820008
10.59	0.1998887273
10.6	0.1992697655
10.61	0.1985267701
10.62	0.197661461
10.63	0.1966756203
