temps	angle
0	0
0.01	0.7501427571
0.02	1.492331366
0.03	2.226160065
0.04	2.951232592
0.05	3.66716235
0.06	4.37357256
0.07	5.070096411
0.08	5.756377205
0.09	6.432068481
0.1	7.096834147
0.11	7.750348592
0.12	8.392296796
0.13	9.02237443
0.14	9.640287949
0.15	10.24575468
0.16	10.83850288
0.17	11.41827184
0.18	11.98481192
0.19	12.53788459
0.2	13.07726252
0.21	13.60272956
0.22	14.11408082
0.23	14.61112266
0.24	15.09367272
0.25	15.56155994
0.26	16.0146245
0.27	16.4527179
0.28	16.87570287
0.29	17.28345338
0.3	17.67585463
0.31	18.05280296
0.32	18.41420585
0.33	18.75998187
0.34	19.09006058
0.35	19.40438254
0.36	19.70289915
0.37	19.98557265
0.38	20.25237599
0.39	20.50329278
0.4	20.73831715
0.41	20.95745368
0.42	21.16071728
0.43	21.34813309
0.44	21.51973636
0.45	21.6755723
0.46	21.81569598
0.47	21.9401722
0.48	22.04907533
0.49	22.14248916
0.5	22.22050679
0.51	22.28323044
0.52	22.33077131
0.53	22.3632494
0.54	22.38079338
0.55	22.38354038
0.56	22.37163584
0.57	22.34523331
0.58	22.30449432
0.59	22.24958812
0.6	22.18069155
0.61	22.09798884
0.62	22.00167139
0.63	21.8919376
0.64	21.76899265
0.65	21.63304833
0.66	21.4843228
0.67	21.3230404
0.68	21.14943146
0.69	20.96373205
0.7	20.76618379
0.71	20.55703365
0.72	20.33653373
0.73	20.10494101
0.74	19.86251719
0.75	19.60952842
0.76	19.3462451
0.77	19.0729417
0.78	18.78989647
0.79	18.49739127
0.8	18.19571134
0.81	17.88514507
0.82	17.56598379
0.83	17.23852154
0.84	16.90305487
0.85	16.55988259
0.86	16.20930559
0.87	15.8516266
0.88	15.48714997
0.89	15.11618146
0.9	14.73902804
0.91	14.35599767
0.92	13.96739908
0.93	13.57354155
0.94	13.17473475
0.95	12.77128847
0.96	12.36351247
0.97	11.95171625
0.98	11.53620886
0.99	11.11729869
1	10.69529331
1.01	10.27049921
1.02	9.843221685
1.03	9.41376461
1.04	8.982430254
1.05	8.549519107
1.06	8.115329698
1.07	7.680158423
1.08	7.24429937
1.09	6.808044148
1.1	6.371681726
1.11	5.935498266
1.12	5.499776967
1.13	5.064797907
1.14	4.630837892
1.15	4.19817031
1.16	3.767064982
1.17	3.337788024
1.18	2.910601711
1.19	2.485764342
1.2	2.063530109
1.21	1.644148977
1.22	1.227866557
1.23	0.8149239949
1.24	0.4055578518
1.25	1.966518585e-15
1.26	-0.4015224837
1.27	-0.7987874187
1.28	-1.191577616
1.29	-1.579680973
1.3	-1.962890558
1.31	-2.341004696
1.32	-2.713827048
1.33	-3.081166686
1.34	-3.442838164
1.35	-3.798661584
1.36	-4.148462659
1.37	-4.492072772
1.38	-4.829329026
1.39	-5.160074299
1.4	-5.484157285
1.41	-5.801432536
1.42	-6.111760499
1.43	-6.41500755
1.44	-6.711046019
1.45	-6.999754217
1.46	-7.281016455
1.47	-7.554723059
1.48	-7.820770386
1.49	-8.079060823
1.5	-8.329502801
1.51	-8.572010788
1.52	-8.806505286
1.53	-9.032912825
1.54	-9.251165948
1.55	-9.461203199
1.56	-9.6629691
1.57	-9.856414129
1.58	-10.04149469
1.59	-10.2181731
1.6	-10.38641752
1.61	-10.54620194
1.62	-10.69750617
1.63	-10.84031571
1.64	-10.97462178
1.65	-11.10042126
1.66	-11.21771659
1.67	-11.32651576
1.68	-11.42683222
1.69	-11.51868482
1.7	-11.60209779
1.71	-11.6771006
1.72	-11.74372791
1.73	-11.80201956
1.74	-11.85202038
1.75	-11.89378021
1.76	-11.92735376
1.77	-11.95280055
1.78	-11.97018482
1.79	-11.97957544
1.8	-11.9810458
1.81	-11.97467376
1.82	-11.9605415
1.83	-11.93873549
1.84	-11.90934632
1.85	-11.87246865
1.86	-11.82820107
1.87	-11.77664606
1.88	-11.71790979
1.89	-11.6521021
1.9	-11.57933635
1.91	-11.49972931
1.92	-11.41340107
1.93	-11.3204749
1.94	-11.22107716
1.95	-11.1153372
1.96	-11.0033872
1.97	-10.8853621
1.98	-10.76139945
1.99	-10.63163933
2	-10.49622419
2.01	-10.35529879
2.02	-10.20901002
2.03	-10.05750683
2.04	-9.900940077
2.05	-9.739462447
2.06	-9.573228302
2.07	-9.402393579
2.08	-9.227115668
2.09	-9.047553296
2.1	-8.863866413
2.11	-8.676216068
2.12	-8.484764298
2.13	-8.289674014
2.14	-8.091108881
2.15	-7.889233206
2.16	-7.684211823
2.17	-7.476209984
2.18	-7.265393242
2.19	-7.051927342
2.2	-6.83597811
2.21	-6.617711346
2.22	-6.397292714
2.23	-6.174887634
2.24	-5.95066118
2.25	-5.724777973
2.26	-5.497402077
2.27	-5.2686969
2.28	-5.038825093
2.29	-4.807948449
2.3	-4.57622781
2.31	-4.343822967
2.32	-4.110892569
2.33	-3.877594029
2.34	-3.644083436
2.35	-3.410515463
2.36	-3.177043281
2.37	-2.943818476
2.38	-2.710990963
2.39	-2.478708905
2.4	-2.247118637
2.41	-2.016364583
2.42	-1.786589186
2.43	-1.55793283
2.44	-1.330533773
2.45	-1.104528074
2.46	-0.88004953
2.47	-0.6572296076
2.48	-0.4361973817
2.49	-0.2170794751
2.5	-2.105203094e-15
2.51	0.2149194982
2.52	0.4275600948
2.53	0.6378055372
2.54	0.8455422944
2.55	1.050659604
2.56	1.253049518
2.57	1.452606942
2.58	1.649229682
2.59	1.842818474
2.6	2.033277026
2.61	2.220512049
2.62	2.404433289
2.63	2.584953553
2.64	2.761988741
2.65	2.935457863
2.66	3.105283066
2.67	3.271389655
2.68	3.433706105
2.69	3.592164079
2.7	3.746698441
2.71	3.897247269
2.72	4.043751857
2.73	4.186156729
2.74	4.324409637
2.75	4.458461568
2.76	4.58826674
2.77	4.7137826
2.78	4.834969822
2.79	4.951792301
2.8	5.06421714
2.81	5.172214644
2.82	5.275758307
2.83	5.374824794
2.84	5.46939393
2.85	5.559448677
2.86	5.644975118
2.87	5.725962432
2.88	5.80240287
2.89	5.874291733
2.9	5.941627342
2.91	6.004411008
2.92	6.062647005
2.93	6.116342535
2.94	6.165507694
2.95	6.210155438
2.96	6.250301545
2.97	6.28596458
2.98	6.317165847
2.99	6.343929358
3	6.366281784
3.01	6.38425241
3.02	6.397873097
3.03	6.407178227
3.04	6.412204661
3.05	6.412991689
3.06	6.409580981
3.07	6.402016532
3.08	6.390344614
3.09	6.374613725
3.1	6.354874528
3.11	6.331179804
3.12	6.303584392
3.13	6.272145134
3.14	6.236920817
3.15	6.197972117
3.16	6.155361539
3.17	6.109153359
3.18	6.059413564
3.19	6.006209791
3.2	5.949611268
3.21	5.889688751
3.22	5.826514466
3.23	5.760162041
3.24	5.690706453
3.25	5.618223955
3.26	5.542792023
3.27	5.464489287
3.28	5.383395471
3.29	5.299591329
3.3	5.213158582
3.31	5.124179856
3.32	5.032738618
3.33	4.938919113
3.34	4.842806302
3.35	4.744485798
3.36	4.644043806
3.37	4.541567059
3.38	4.437142755
3.39	4.330858498
3.4	4.222802236
3.41	4.113062198
3.42	4.001726836
3.43	3.888884765
3.44	3.774624703
3.45	3.659035408
3.46	3.542205629
3.47	3.424224037
3.48	3.305179176
3.49	3.185159404
3.5	3.064252836
3.51	2.942547289
3.52	2.820130229
3.53	2.697088717
3.54	2.573509355
3.55	2.449478235
3.56	2.325080887
3.57	2.200402229
3.58	2.075526519
3.59	1.950537306
3.6	1.825517379
3.61	1.700548725
3.62	1.575712483
3.63	1.451088895
3.64	1.32675727
3.65	1.202795932
3.66	1.079282187
3.67	0.9562922798
3.68	0.8339013521
3.69	0.7121834078
3.7	0.5912112747
3.71	0.4710565686
3.72	0.3517896586
3.73	0.2334796336
3.74	0.1161942699
3.75	1.690251024e-15
3.76	-0.1150381176
3.77	-0.2288564271
3.78	-0.3413927029
3.79	-0.4525861764
3.8	-0.5623775606
3.81	-0.6707090749
3.82	-0.7775244671
3.83	-0.8827690354
3.84	-0.9863896487
3.85	-1.088334765
3.86	-1.188554451
3.87	-1.287000397
3.88	-1.383625932
3.89	-1.478386039
3.9	-1.571237369
3.91	-1.66213825
3.92	-1.7510487
3.93	-1.837930435
3.94	-1.922746876
3.95	-2.00546316
3.96	-2.08604614
3.97	-2.164464395
3.98	-2.240688231
3.99	-2.31468968
4	-2.386442508
4.01	-2.455922209
4.02	-2.523106008
4.03	-2.587972854
4.04	-2.650503421
4.05	-2.710680101
4.06	-2.768486999
4.07	-2.823909928
4.08	-2.876936397
4.09	-2.927555608
4.1	-2.975758441
4.11	-3.021537446
4.12	-3.064886831
4.13	-3.105802449
4.14	-3.144281785
4.15	-3.180323939
4.16	-3.213929614
4.17	-3.245101097
4.18	-3.273842243
4.19	-3.300158456
4.2	-3.324056671
4.21	-3.345545334
4.22	-3.364634381
4.23	-3.381335216
4.24	-3.395660691
4.25	-3.407625082
4.26	-3.417244065
4.27	-3.424534693
4.28	-3.42951537
4.29	-3.432205827
4.3	-3.432627093
4.31	-3.430801472
4.32	-3.426752514
4.33	-3.420504987
4.34	-3.412084849
4.35	-3.401519218
4.36	-3.388836346
4.37	-3.374065587
4.38	-3.357237364
4.39	-3.338383146
4.4	-3.317535409
4.41	-3.29472761
4.42	-3.269994154
4.43	-3.24337036
4.44	-3.214892433
4.45	-3.184597426
4.46	-3.152523214
4.47	-3.118708456
4.48	-3.083192563
4.49	-3.046015665
4.5	-3.00721858
4.51	-2.966842776
4.52	-2.924930342
4.53	-2.88152395
4.54	-2.836666825
4.55	-2.79040271
4.56	-2.74277583
4.57	-2.693830862
4.58	-2.6436129
4.59	-2.592167419
4.6	-2.539540246
4.61	-2.485777522
4.62	-2.430925672
4.63	-2.37503137
4.64	-2.318141506
4.65	-2.260303157
4.66	-2.201563547
4.67	-2.141970023
4.68	-2.081570015
4.69	-2.02041101
4.7	-1.95854052
4.71	-1.896006045
4.72	-1.832855049
4.73	-1.769134927
4.74	-1.704892973
4.75	-1.64017635
4.76	-1.575032065
4.77	-1.509506935
4.78	-1.44364756
4.79	-1.377500294
4.8	-1.311111219
4.81	-1.244526117
4.82	-1.17779044
4.83	-1.11094929
4.84	-1.044047385
4.85	-0.9771290398
4.86	-0.9102381398
4.87	-0.8434181145
4.88	-0.7767119151
4.89	-0.7101619914
4.9	-0.6438102687
4.91	-0.5776981254
4.92	-0.5118663718
4.93	-0.446355229
4.94	-0.3812043082
4.95	-0.3164525915
4.96	-0.2521384118
4.97	-0.1882994352
4.98	-0.1249726422
4.99	-0.06219431092
5	-1.20630157e-15
5.01	0.06157546718
5.02	0.1224980181
5.03	0.1827343459
5.04	0.2422519233
5.05	0.3010190165
5.06	0.3590046975
5.07	0.416178857
5.08	0.472512215
5.09	0.5279763325
5.1	0.5825436212
5.11	0.6361873535
5.12	0.6888816709
5.13	0.7406015927
5.14	0.791323023
5.15	0.8410227586
5.16	0.8896784942
5.17	0.9372688287
5.18	0.9837732701
5.19	1.02917224
5.2	1.073447076
5.21	1.116580037
5.22	1.158554304
5.23	1.199353983
5.24	1.238964105
5.25	1.277370626
5.26	1.31456043
5.27	1.350521326
5.28	1.385242047
5.29	1.418712247
5.3	1.450922503
5.31	1.481864306
5.32	1.511530062
5.33	1.539913086
5.34	1.567007597
5.35	1.592808714
5.36	1.617312449
5.37	1.640515703
5.38	1.662416256
5.39	1.68301276
5.4	1.702304735
5.41	1.720292556
5.42	1.736977449
5.43	1.752361476
5.44	1.766447529
5.45	1.779239322
5.46	1.790741375
5.47	1.800959005
5.48	1.809898318
5.49	1.817566192
5.5	1.823970269
5.51	1.82911894
5.52	1.833021332
5.53	1.835687296
5.54	1.837127394
5.55	1.837352881
5.56	1.836375697
5.57	1.834208446
5.58	1.830864386
5.59	1.82635741
5.6	1.820702036
5.61	1.813913384
5.62	1.806007166
5.63	1.796999667
5.64	1.786907732
5.65	1.775748742
5.66	1.763540607
5.67	1.750301742
5.68	1.736051052
5.69	1.720807916
5.7	1.704592168
5.71	1.687424079
5.72	1.669324343
5.73	1.650314056
5.74	1.630414696
5.75	1.609648113
5.76	1.588036503
5.77	1.565602393
5.78	1.542368626
5.79	1.518358337
5.8	1.493594941
5.81	1.468102109
5.82	1.441903756
5.83	1.415024017
5.84	1.387487236
5.85	1.35931794
5.86	1.330540827
5.87	1.301180748
5.88	1.271262684
5.89	1.240811734
5.9	1.209853097
5.91	1.178412049
5.92	1.146513934
5.93	1.11418414
5.94	1.081448084
5.95	1.048331196
5.96	1.014858904
5.97	0.981056612
5.98	0.9469496884
5.99	0.912563448
6	0.8779231362
6.01	0.8430539133
6.02	0.8079808385
6.03	0.7727288551
6.04	0.7373227751
6.05	0.7017872641
6.06	0.6661468271
6.07	0.6304257936
6.08	0.5946483038
6.09	0.5588382945
6.1	0.5230194857
6.11	0.487215367
6.12	0.4514491848
6.13	0.4157439292
6.14	0.380122322
6.15	0.3446068041
6.16	0.3092195238
6.17	0.2739823254
6.18	0.2389167375
6.19	0.2040439626
6.2	0.1693848662
6.21	0.1349599665
6.22	0.1007894247
6.23	0.066893035
6.24	0.03329021571
6.25	8.071083769e-16
6.26	-0.03295897253
6.27	-0.06556846416
6.28	-0.09781064701
6.29	-0.1296681105
6.3	-0.1611238688
6.31	-0.1921613672
6.32	-0.2227644895
6.33	-0.2529175632
6.34	-0.2826053659
6.35	-0.3118131309
6.36	-0.3405265517
6.37	-0.3687317873
6.38	-0.3964154665
6.39	-0.4235646917
6.4	-0.4501670432
6.41	-0.4762105817
6.42	-0.5016838521
6.43	-0.5265758859
6.44	-0.5508762032
6.45	-0.5745748152
6.46	-0.5976622257
6.47	-0.6201294319
6.48	-0.6419679263
6.49	-0.6631696966
6.5	-0.683727226
6.51	-0.7036334937
6.52	-0.7228819743
6.53	-0.7414666368
6.54	-0.7593819441
6.55	-0.7766228516
6.56	-0.7931848053
6.57	-0.8090637402
6.58	-0.8242560781
6.59	-0.8387587247
6.6	-0.8525690675
6.61	-0.8656849721
6.62	-0.8781047788
6.63	-0.8898272997
6.64	-0.900851814
6.65	-0.911178064
6.66	-0.9208062511
6.67	-0.9297370305
6.68	-0.9379715067
6.69	-0.945511228
6.7	-0.9523581813
6.71	-0.9585147863
6.72	-0.9639838897
6.73	-0.9687687591
6.74	-0.9728730764
6.75	-0.9763009319
6.76	-0.9790568167
6.77	-0.9811456166
6.78	-0.9825726045
6.79	-0.9833434332
6.8	-0.9834641279
6.81	-0.9829410788
6.82	-0.9817810329
6.83	-0.9799910864
6.84	-0.9775786764
6.85	-0.9745515725
6.86	-0.970917869
6.87	-0.9666859755
6.88	-0.9618646091
6.89	-0.9564627851
6.9	-0.9504898085
6.91	-0.9439552647
6.92	-0.9368690109
6.93	-0.9292411662
6.94	-0.9210821034
6.95	-0.9124024387
6.96	-0.9032130232
6.97	-0.8935249327
6.98	-0.8833494589
6.99	-0.8726980994
7	-0.8615825484
7.01	-0.8500146869
7.02	-0.8380065735
7.03	-0.825570434
7.04	-0.8127186526
7.05	-0.7994637615
7.06	-0.785818432
7.07	-0.771795464
7.08	-0.7574077769
7.09	-0.7426683999
7.1	-0.7275904623
7.11	-0.712187184
7.12	-0.6964718658
7.13	-0.6804578801
7.14	-0.6641586614
7.15	-0.6475876968
7.16	-0.6307585169
7.17	-0.6136846863
7.18	-0.5963797943
7.19	-0.5788574461
7.2	-0.5611312537
7.21	-0.5432148267
7.22	-0.5251217636
7.23	-0.5068656429
7.24	-0.4884600148
7.25	-0.469918392
7.26	-0.4512542419
7.27	-0.4324809778
7.28	-0.4136119508
7.29	-0.3946604419
7.3	-0.3756396535
7.31	-0.3565627023
7.32	-0.3374426108
7.33	-0.3182923005
7.34	-0.2991245838
7.35	-0.2799521571
7.36	-0.2607875934
7.37	-0.2416433356
7.38	-0.2225316895
7.39	-0.2034648171
7.4	-0.1844547302
7.41	-0.1655132841
7.42	-0.1466521709
7.43	-0.1278829142
7.44	-0.1092168629
7.45	-0.09066518543
7.46	-0.07223886446
7.47	-0.05394869143
7.48	-0.03580526147
7.49	-0.01781896841
7.5	-5.184167793e-16
7.51	0.01764166672
7.52	0.03509626979
7.53	0.05235426664
7.54	0.06940633807
7.55	0.08624339216
7.56	0.1028565679
7.57	0.1192372389
7.58	0.1353770162
7.59	0.1512677519
7.6	0.1669015419
7.61	0.1822707285
7.62	0.1973679032
7.63	0.2121859089
7.64	0.226717842
7.65	0.2409570546
7.66	0.2548971562
7.67	0.2685320154
7.68	0.2818557609
7.69	0.2948627835
7.7	0.3075477364
7.71	0.3199055367
7.72	0.3319313656
7.73	0.3436206693
7.74	0.3549691591
7.75	0.3659728117
7.76	0.376627869
7.77	0.3869308382
7.78	0.3968784912
7.79	0.4064678642
7.8	0.415696257
7.81	0.424561232
7.82	0.4330606133
7.83	0.4411924858
7.84	0.4489551932
7.85	0.456347337
7.86	0.4633677748
7.87	0.4700156183
7.88	0.4762902316
7.89	0.4821912288
7.9	0.4877184722
7.91	0.4928720694
7.92	0.4976523711
7.93	0.5020599686
7.94	0.5060956906
7.95	0.5097606006
7.96	0.5130559938
7.97	0.5159833939
7.98	0.5185445499
7.99	0.5207414327
8	0.5225762315
8.01	0.5240513503
8.02	0.5251694043
8.03	0.5259332159
8.04	0.5263458108
8.05	0.526410414
8.06	0.526130446
8.07	0.5255095182
8.08	0.5245514289
8.09	0.5232601588
8.1	0.5216398669
8.11	0.5196948855
8.12	0.5174297162
8.13	0.5148490247
8.14	0.5119576367
8.15	0.5087605327
8.16	0.5052628435
8.17	0.5014698451
8.18	0.4973869541
8.19	0.4930197224
8.2	0.4883738327
8.21	0.483455093
8.22	0.4782694319
8.23	0.4728228932
8.24	0.4671216313
8.25	0.4611719056
8.26	0.4549800756
8.27	0.4485525956
8.28	0.4418960098
8.29	0.435016947
8.3	0.4279221151
8.31	0.4206182965
8.32	0.4131123426
8.33	0.4054111686
8.34	0.3975217486
8.35	0.3894511102
8.36	0.3812063295
8.37	0.3727945258
8.38	0.3642228569
8.39	0.3554985138
8.4	0.3466287157
8.41	0.3376207048
8.42	0.3284817418
8.43	0.3192191006
8.44	0.3098400635
8.45	0.3003519165
8.46	0.2907619441
8.47	0.2810774253
8.48	0.2713056281
8.49	0.2614538053
8.5	0.2515291898
8.51	0.2415389902
8.52	0.231490386
8.53	0.2213905237
8.54	0.2112465119
8.55	0.2010654175
8.56	0.1908542614
8.57	0.1806200139
8.58	0.1703695915
8.59	0.160109852
8.6	0.1498475915
8.61	0.1395895398
8.62	0.129342357
8.63	0.11911263
8.64	0.1089068687
8.65	0.09873150241
8.66	0.08859287686
8.67	0.07849725047
8.68	0.06845079134
8.69	0.05845957405
8.7	0.04852957667
8.71	0.03866667779
8.72	0.02887665364
8.73	0.01916517541
8.74	0.009537806489
8.75	3.237365902e-16
8.76	-0.009442903728
8.77	-0.01878567951
8.78	-0.02802321955
8.79	-0.03715053566
8.8	-0.04616276129
8.81	-0.05505515349
8.82	-0.06382309481
8.83	-0.07246209506
8.84	-0.08096779296
8.85	-0.08933595772
8.86	-0.09756249051
8.87	-0.1056434258
8.88	-0.1135749327
8.89	-0.121353316
8.9	-0.1289750173
8.91	-0.136436616
8.92	-0.1437348301
8.93	-0.1508665172
8.94	-0.1578286747
8.95	-0.1646184407
8.96	-0.1712330946
8.97	-0.1776700569
8.98	-0.1839268903
8.99	-0.1900012992
9	-0.19589113
9.01	-0.2015943712
9.02	-0.2071091532
9.03	-0.2124337482
9.04	-0.2175665696
9.05	-0.2225061723
9.06	-0.2272512515
9.07	-0.2318006425
9.08	-0.2361533202
9.09	-0.240308398
9.1	-0.2442651275
9.11	-0.2480228971
9.12	-0.2515812313
9.13	-0.2549397898
9.14	-0.258098366
9.15	-0.2610568861
9.16	-0.2638154079
9.17	-0.2663741191
9.18	-0.268733336
9.19	-0.2708935023
9.2	-0.2728551873
9.21	-0.2746190841
9.22	-0.2761860085
9.23	-0.2775568965
9.24	-0.2787328031
9.25	-0.2797149002
9.26	-0.2805044744
9.27	-0.2811029256
9.28	-0.2815117645
9.29	-0.2817326106
9.3	-0.2817671902
9.31	-0.2816173341
9.32	-0.2812849754
9.33	-0.2807721471
9.34	-0.2800809801
9.35	-0.2792137003
9.36	-0.2781726268
9.37	-0.276960169
9.38	-0.2755788244
9.39	-0.2740311759
9.4	-0.2723198895
9.41	-0.2704477114
9.42	-0.2684174656
9.43	-0.2662320516
9.44	-0.2638944409
9.45	-0.2614076754
9.46	-0.2587748637
9.47	-0.2559991793
9.48	-0.2530838573
9.49	-0.2500321917
9.5	-0.246847533
9.51	-0.2435332852
9.52	-0.2400929031
9.53	-0.2365298895
9.54	-0.2328477925
9.55	-0.2290502026
9.56	-0.2251407502
9.57	-0.2211231026
9.58	-0.2170009613
9.59	-0.212778059
9.6	-0.2084581576
9.61	-0.2040450445
9.62	-0.1995425304
9.63	-0.1949544467
9.64	-0.1902846424
9.65	-0.1855369815
9.66	-0.1807153408
9.67	-0.1758236064
9.68	-0.1708656718
9.69	-0.165845435
9.7	-0.1607667959
9.71	-0.1556336536
9.72	-0.1504499042
9.73	-0.1452194381
9.74	-0.1399461373
9.75	-0.1346338735
9.76	-0.1292865049
9.77	-0.1239078747
9.78	-0.118501808
9.79	-0.1130721097
9.8	-0.1076225626
9.81	-0.1021569246
9.82	-0.09667892667
9.83	-0.09119227091
9.84	-0.08570062813
9.85	-0.08020763589
9.86	-0.07471689646
9.87	-0.06923197476
9.88	-0.06375639648
9.89	-0.05829364609
9.9	-0.05284716502
9.91	-0.04742034983
9.92	-0.04201655042
9.93	-0.03663906835
9.94	-0.03129115512
9.95	-0.02597601053
9.96	-0.02069678119
9.97	-0.01545655888
9.98	-0.01025837917
9.99	-0.005105219926
10	-1.980385254e-16
10.01	0.005054422139
10.02	0.01005524965
10.03	0.01499974853
10.04	0.01988524879
10.05	0.02470914555
10.06	0.0294689001
10.07	0.0341620409
10.08	0.03878616452
10.09	0.04333893652
10.1	0.04781809235
10.11	0.05222143804
10.12	0.05654685101
10.13	0.06079228071
10.14	0.06495574926
10.15	0.06903535198
10.16	0.07302925797
10.17	0.07693571051
10.18	0.08075302752
10.19	0.08447960188
10.2	0.08811390174
10.21	0.0916544708
10.22	0.09509992847
10.23	0.09844897006
10.24	0.1017003668
10.25	0.1048529661
10.26	0.1079056911
10.27	0.1108575412
10.28	0.1137075915
10.29	0.1164549929
10.3	0.1190989717
10.31	0.1216388295
10.32	0.1240739431
10.33	0.1264037635
10.34	0.1286278164
10.35	0.1307457011
10.36	0.1327570902
10.37	0.1346617292
10.38	0.136459436
10.39	0.1381501001
10.4	0.1397336818
10.41	0.1412102121
10.42	0.1425797915
10.43	0.1438425893
10.44	0.144998843
10.45	0.1460488573
10.46	0.1469930033
10.47	0.1478317174
10.48	0.1485655009
10.49	0.1491949184
10.5	0.149720597
10.51	0.1501432257
10.52	0.1504635535
10.53	0.1506823892
10.54	0.1508005996
10.55	0.1508191087
10.56	0.1507388966
10.57	0.1505609978
