temps	angle
0	0
0.01	1.125182669
0.02	2.238246627
0.03	3.338399439
0.04	4.424867149
0.05	5.496894725
0.06	6.553746493
0.07	7.594706549
0.08	8.619079145
0.09	9.626189065
0.1	10.61538197
0.11	11.58602473
0.12	12.53750572
0.13	13.46923515
0.14	14.38064526
0.15	15.27119063
0.16	16.14034838
0.17	16.98761837
0.18	17.8125234
0.19	18.61460935
0.2	19.39344535
0.21	20.14862388
0.22	20.87976088
0.23	21.58649584
0.24	22.26849185
0.25	22.92543564
0.26	23.55703761
0.27	24.16303184
0.28	24.74317603
0.29	25.29725153
0.3	25.82506323
0.31	26.32643952
0.32	26.80123215
0.33	27.24931619
0.34	27.67058984
0.35	28.0649743
0.36	28.43241363
0.37	28.77287453
0.38	29.08634617
0.39	29.37283997
0.4	29.63238936
0.41	29.86504954
0.42	30.07089721
0.43	30.25003032
0.44	30.40256773
0.45	30.52864896
0.46	30.62843384
0.47	30.70210215
0.48	30.74985335
0.49	30.77190613
0.5	30.76849812
0.51	30.73988545
0.52	30.68634238
0.53	30.60816089
0.54	30.50565026
0.55	30.37913667
0.56	30.22896272
0.57	30.05548702
0.58	29.85908372
0.59	29.64014207
0.6	29.39906591
0.61	29.13627323
0.62	28.85219569
0.63	28.54727808
0.64	28.22197789
0.65	27.87676476
0.66	27.51212
0.67	27.12853606
0.68	26.72651603
0.69	26.30657313
0.7	25.86923016
0.71	25.41501899
0.72	24.94448004
0.73	24.45816174
0.74	23.95662002
0.75	23.44041775
0.76	22.91012423
0.77	22.36631466
0.78	21.8095696
0.79	21.24047445
0.8	20.65961889
0.81	20.06759642
0.82	19.46500376
0.83	18.85244037
0.84	18.23050795
0.85	17.59980985
0.86	16.96095066
0.87	16.31453561
0.88	15.66117013
0.89	15.0014593
0.9	14.33600741
0.91	13.66541744
0.92	12.99029057
0.93	12.31122574
0.94	11.62881916
0.95	10.94366382
0.96	10.2563491
0.97	9.567460268
0.98	8.877578064
0.99	8.187278265
1	7.497131258
1.01	6.807701635
1.02	6.119547775
1.03	5.433221461
1.04	4.749267482
1.05	4.068223262
1.06	3.390618492
1.07	2.716974768
1.08	2.04780525
1.09	1.383614321
1.1	0.7248972598
1.11	0.07213992927
1.12	-0.5741815317
1.13	-1.213601001
1.14	-1.845662656
1.15	-2.469921245
1.16	-3.085942347
1.17	-3.693302622
1.18	-4.291590043
1.19	-4.88040413
1.2	-5.459356154
1.21	-6.028069346
1.22	-6.586179085
1.23	-7.133333072
1.24	-7.669191506
1.25	-8.193427227
1.26	-8.705725868
1.27	-9.205785979
1.28	-9.69331915
1.29	-10.16805012
1.3	-10.62971685
1.31	-11.07807066
1.32	-11.51287622
1.33	-11.9339117
1.34	-12.34096873
1.35	-12.73385252
1.36	-13.11238181
1.37	-13.47638893
1.38	-13.82571981
1.39	-14.16023391
1.4	-14.47980429
1.41	-14.7843175
1.42	-15.07367357
1.43	-15.34778597
1.44	-15.60658153
1.45	-15.85000037
1.46	-16.07799582
1.47	-16.29053434
1.48	-16.48759537
1.49	-16.66917128
1.5	-16.83526721
1.51	-16.98590094
1.52	-17.12110276
1.53	-17.24091532
1.54	-17.34539347
1.55	-17.43460408
1.56	-17.50862589
1.57	-17.56754932
1.58	-17.61147626
1.59	-17.6405199
1.6	-17.65480451
1.61	-17.65446523
1.62	-17.63964783
1.63	-17.61050854
1.64	-17.56721377
1.65	-17.50993987
1.66	-17.43887293
1.67	-17.35420847
1.68	-17.25615125
1.69	-17.14491496
1.7	-17.02072197
1.71	-16.88380309
1.72	-16.73439724
1.73	-16.57275123
1.74	-16.39911944
1.75	-16.21376356
1.76	-16.01695228
1.77	-15.80896104
1.78	-15.59007167
1.79	-15.36057218
1.8	-15.12075638
1.81	-14.87092364
1.82	-14.61137855
1.83	-14.34243066
1.84	-14.06439414
1.85	-13.77758748
1.86	-13.48233321
1.87	-13.17895758
1.88	-12.86779024
1.89	-12.54916396
1.9	-12.22341433
1.91	-11.89087942
1.92	-11.55189952
1.93	-11.20681681
1.94	-10.85597508
1.95	-10.49971942
1.96	-10.13839593
1.97	-9.772351415
1.98	-9.401933104
1.99	-9.027488364
2	-8.649364406
2.01	-8.267908002
2.02	-7.883465211
2.03	-7.496381095
2.04	-7.10699945
2.05	-6.715662537
2.06	-6.322710813
2.07	-5.928482675
2.08	-5.533314198
2.09	-5.137538883
2.1	-4.741487414
2.11	-4.345487408
2.12	-3.949863182
2.13	-3.554935515
2.14	-3.161021427
2.15	-2.768433948
2.16	-2.377481909
2.17	-1.988469722
2.18	-1.601697183
2.19	-1.217459266
2.2	-0.8360459313
2.21	-0.4577419365
2.22	-0.0828266559
2.23	0.2884260958
2.24	0.6557482327
2.25	1.018877561
2.26	1.377557933
2.27	1.731539403
2.28	2.080578363
2.29	2.424437685
2.3	2.762886849
2.31	3.095702065
2.32	3.422666393
2.33	3.743569851
2.34	4.058209516
2.35	4.366389624
2.36	4.667921657
2.37	4.962624425
2.38	5.250324144
2.39	5.530854504
2.4	5.804056728
2.41	6.069779634
2.42	6.327879675
2.43	6.578220988
2.44	6.820675426
2.45	7.055122585
2.46	7.281449828
2.47	7.499552301
2.48	7.709332936
2.49	7.91070246
2.5	8.103579388
2.51	8.28789001
2.52	8.463568377
2.53	8.630556278
2.54	8.788803208
2.55	8.938266336
2.56	9.078910461
2.57	9.210707968
2.58	9.333638771
2.59	9.447690259
2.6	9.55285723
2.61	9.649141821
2.62	9.736553431
2.63	9.815108649
2.64	9.88483116
2.65	9.945751658
2.66	9.997907755
2.67	10.04134388
2.68	10.07611115
2.69	10.10226733
2.7	10.11987663
2.71	10.12900965
2.72	10.12974324
2.73	10.12216038
2.74	10.10635003
2.75	10.08240703
2.76	10.05043194
2.77	10.0105309
2.78	9.962815524
2.79	9.90740269
2.8	9.844414447
2.81	9.773977838
2.82	9.696224755
2.83	9.611291775
2.84	9.519320008
2.85	9.420454933
2.86	9.314846236
2.87	9.202647645
2.88	9.084016765
2.89	8.959114907
2.9	8.828106921
2.91	8.691161029
2.92	8.548448645
2.93	8.40014421
2.94	8.246425017
2.95	8.087471034
2.96	7.923464735
2.97	7.754590921
2.98	7.581036547
2.99	7.402990547
3	7.220643661
3.01	7.034188256
3.02	6.843818158
3.03	6.649728475
3.04	6.452115422
3.05	6.251176155
3.06	6.047108596
3.07	5.840111262
3.08	5.6303831
3.09	5.418123316
3.1	5.203531211
3.11	4.986806017
3.12	4.768146731
3.13	4.547751959
3.14	4.325819754
3.15	4.102547456
3.16	3.878131546
3.17	3.652767485
3.18	3.426649566
3.19	3.19997077
3.2	2.972922615
3.21	2.745695019
3.22	2.518476155
3.23	2.291452319
3.24	2.06480779
3.25	1.838724707
3.26	1.613382931
3.27	1.388959928
3.28	1.165630645
3.29	0.9435673904
3.3	0.7229397189
3.31	0.5039143214
3.32	0.2866549157
3.33	0.07132214186
3.34	-0.1419265387
3.35	-0.352936941
3.36	-0.5615582499
3.37	-0.7676431111
3.38	-0.9710477166
3.39	-1.171631888
3.4	-1.369259156
3.41	-1.563796832
3.42	-1.755116087
3.43	-1.943092008
3.44	-2.127603671
3.45	-2.308534197
3.46	-2.485770805
3.47	-2.659204869
3.48	-2.82873196
3.49	-2.994251896
3.5	-3.155668777
3.51	-3.312891023
3.52	-3.465831406
3.53	-3.614407078
3.54	-3.758539597
3.55	-3.898154944
3.56	-4.033183543
3.57	-4.163560274
3.58	-4.289224478
3.59	-4.410119966
3.6	-4.526195022
3.61	-4.637402395
3.62	-4.7436993
3.63	-4.845047404
3.64	-4.941412816
3.65	-5.032766067
3.66	-5.119082096
3.67	-5.20034022
3.68	-5.276524114
3.69	-5.347621774
3.7	-5.41362549
3.71	-5.474531807
3.72	-5.530341484
3.73	-5.581059456
3.74	-5.626694782
3.75	-5.667260603
3.76	-5.702774086
3.77	-5.733256371
3.78	-5.758732516
3.79	-5.779231436
3.8	-5.79478584
3.81	-5.805432169
3.82	-5.811210524
3.83	-5.812164605
3.84	-5.808341629
3.85	-5.799792267
3.86	-5.786570558
3.87	-5.768733839
3.88	-5.746342661
3.89	-5.719460709
3.9	-5.688154717
3.91	-5.652494384
3.92	-5.612552288
3.93	-5.568403797
3.94	-5.520126979
3.95	-5.467802512
3.96	-5.41151359
3.97	-5.351345834
3.98	-5.287387191
3.99	-5.219727846
4	-5.14846012
4.01	-5.073678377
4.02	-4.995478922
4.03	-4.913959908
4.04	-4.829221233
4.05	-4.741364441
4.06	-4.650492624
4.07	-4.556710324
4.08	-4.460123426
4.09	-4.360839064
4.1	-4.25896552
4.11	-4.154612119
4.12	-4.047889135
4.13	-3.938907688
4.14	-3.827779644
4.15	-3.714617518
4.16	-3.599534373
4.17	-3.482643723
4.18	-3.364059436
4.19	-3.243895635
4.2	-3.122266603
4.21	-2.999286688
4.22	-2.87507021
4.23	-2.749731364
4.24	-2.62338413
4.25	-2.49614218
4.26	-2.36811879
4.27	-2.23942675
4.28	-2.110178276
4.29	-1.980484923
4.3	-1.850457502
4.31	-1.720205995
4.32	-1.589839473
4.33	-1.459466017
4.34	-1.329192639
4.35	-1.1991252
4.36	-1.069368345
4.37	-0.9400254173
4.38	-0.8111983958
4.39	-0.6829878205
4.4	-0.5554927251
4.41	-0.4288105713
4.42	-0.3030371843
4.43	-0.1782666901
4.44	-0.05459145573
4.45	0.06789796942
4.46	0.1891129095
4.47	0.3089666166
4.48	0.4273743224
4.49	0.5442532881
4.5	0.6595228524
4.51	0.7731044765
4.52	0.8849217877
4.53	0.9949006205
4.54	1.102969055
4.55	1.209057456
4.56	1.313098501
4.57	1.415027222
4.58	1.514781026
4.59	1.612299729
4.6	1.707525578
4.61	1.800403277
4.62	1.890880005
4.63	1.978905437
4.64	2.064431758
4.65	2.14741368
4.66	2.227808453
4.67	2.305575872
4.68	2.380678291
4.69	2.453080623
4.7	2.522750342
4.71	2.589657493
4.72	2.653774679
4.73	2.715077069
4.74	2.773542385
4.75	2.829150899
4.76	2.881885423
4.77	2.931731297
4.78	2.978676375
4.79	3.022711014
4.8	3.063828052
4.81	3.102022793
4.82	3.137292985
4.83	3.169638795
4.84	3.199062789
4.85	3.225569904
4.86	3.249167421
4.87	3.269864934
4.88	3.287674321
4.89	3.302609711
4.9	3.314687449
4.91	3.323926063
4.92	3.330346224
4.93	3.333970709
4.94	3.334824364
4.95	3.332934058
4.96	3.328328645
4.97	3.321038918
4.98	3.311097566
4.99	3.298539128
5	3.283399945
5.01	3.265718115
5.02	3.245533441
5.03	3.222887385
5.04	3.197823012
5.05	3.170384946
5.06	3.140619312
5.07	3.108573685
5.08	3.074297038
5.09	3.037839686
5.1	2.999253233
5.11	2.958590515
5.12	2.915905545
5.13	2.871253458
5.14	2.824690456
5.15	2.776273745
5.16	2.726061486
5.17	2.674112732
5.18	2.620487375
5.19	2.565246083
5.2	2.508450249
5.21	2.450161928
5.22	2.390443784
5.23	2.329359029
5.24	2.266971366
5.25	2.203344936
5.26	2.138544254
5.27	2.07263416
5.28	2.005679756
5.29	1.937746354
5.3	1.86889942
5.31	1.799204516
5.32	1.728727249
5.33	1.657533214
5.34	1.585687941
5.35	1.513256844
5.36	1.440305164
5.37	1.366897923
5.38	1.293099865
5.39	1.218975416
5.4	1.144588624
5.41	1.070003118
5.42	0.9952820557
5.43	0.920488077
5.44	0.8456832592
5.45	0.7709290706
5.46	0.6962863262
5.47	0.6218151445
5.48	0.5475749053
5.49	0.4736242077
5.5	0.4000208308
5.51	0.3268216933
5.52	0.2540828163
5.53	0.181859286
5.54	0.1102052175
5.55	0.03917372058
5.56	-0.03118313432
5.57	-0.1008143481
5.58	-0.1696700245
5.59	-0.2377013997
5.6	-0.3048608713
5.61	-0.3711020258
5.62	-0.4363796648
5.63	-0.50064983
5.64	-0.5638698267
5.65	-0.6259982467
5.66	-0.686994989
5.67	-0.7468212801
5.68	-0.8054396923
5.69	-0.8628141609
5.7	-0.9189100008
5.71	-0.9736939206
5.72	-1.027134036
5.73	-1.079199884
5.74	-1.129862428
5.75	-1.179094077
5.76	-1.226868683
5.77	-1.273161556
5.78	-1.317949467
5.79	-1.361210653
5.8	-1.402924818
5.81	-1.443073139
5.82	-1.481638263
5.83	-1.51860431
5.84	-1.553956868
5.85	-1.587682994
5.86	-1.619771205
5.87	-1.650211478
5.88	-1.678995241
5.89	-1.706115367
5.9	-1.731566162
5.91	-1.75534336
5.92	-1.777444111
5.93	-1.797866965
5.94	-1.816611867
5.95	-1.833680136
5.96	-1.849074455
5.97	-1.862798851
5.98	-1.874858684
5.99	-1.885260623
6	-1.894012632
6.01	-1.90112395
6.02	-1.906605068
6.03	-1.910467711
6.04	-1.912724815
6.05	-1.913390504
6.06	-1.912480066
6.07	-1.910009931
6.08	-1.905997645
6.09	-1.900461843
6.1	-1.893422225
6.11	-1.884899529
6.12	-1.874915503
6.13	-1.863492877
6.14	-1.850655335
6.15	-1.836427486
6.16	-1.820834835
6.17	-1.80390375
6.18	-1.78566144
6.19	-1.766135913
6.2	-1.745355954
6.21	-1.723351091
6.22	-1.700151562
6.23	-1.675788283
6.24	-1.650292819
6.25	-1.623697348
6.26	-1.596034631
6.27	-1.567337978
6.28	-1.537641217
6.29	-1.506978658
6.3	-1.475385062
6.31	-1.442895609
6.32	-1.409545862
6.33	-1.375371739
6.34	-1.340409474
6.35	-1.304695587
6.36	-1.268266853
6.37	-1.231160265
6.38	-1.193413006
6.39	-1.155062414
6.4	-1.116145951
6.41	-1.076701168
6.42	-1.036765678
6.43	-0.9963771219
6.44	-0.9555731373
6.45	-0.9143913282
6.46	-0.8728692344
6.47	-0.8310443011
6.48	-0.7889538495
6.49	-0.7466350473
6.5	-0.7041248796
6.51	-0.6614601204
6.52	-0.6186773047
6.53	-0.5758127008
6.54	-0.5329022831
6.55	-0.4899817058
6.56	-0.4470862766
6.57	-0.4042509311
6.58	-0.3615102083
6.59	-0.3188982257
6.6	-0.2764486557
6.61	-0.2341947027
6.62	-0.1921690799
6.63	-0.1504039878
6.64	-0.1089310931
6.65	-0.06778150726
6.66	-0.02698576732
6.67	0.01342618392
6.68	0.05342501639
6.69	0.09298203073
6.7	0.1320691755
6.71	0.170659064
6.72	0.2087249895
6.73	0.2462409413
6.74	0.2831816183
6.75	0.3195224432
6.76	0.3552395751
6.77	0.3903099222
6.78	0.4247111528
6.79	0.4584217062
6.8	0.491420803
6.81	0.5236884541
6.82	0.5552054691
6.83	0.5859534644
6.84	0.6159148703
6.85	0.6450729367
6.86	0.6734117395
6.87	0.700916185
6.88	0.727572014
6.89	0.7533658053
6.9	0.7782849784
6.91	0.8023177953
6.92	0.8254533619
6.93	0.8476816286
6.94	0.86899339
6.95	0.8893802838
6.96	0.9088347899
6.97	0.9273502277
6.98	0.9449207534
6.99	0.9615413563
7	0.977207855
7.01	0.991916892
7.02	1.005665929
7.03	1.01845324
7.04	1.030277905
7.05	1.041139804
7.06	1.051039606
7.07	1.059978764
7.08	1.067959503
7.09	1.074984815
7.1	1.081058442
7.11	1.086184872
7.12	1.090369326
7.13	1.093617742
7.14	1.095936772
7.15	1.097333759
7.16	1.097816732
7.17	1.09739439
7.18	1.096076088
7.19	1.093871821
7.2	1.090792213
7.21	1.0868485
7.22	1.082052515
7.23	1.076416673
7.24	1.069953952
7.25	1.062677883
7.26	1.054602525
7.27	1.045742456
7.28	1.036112752
7.29	1.025728969
7.3	1.014607129
7.31	1.002763699
7.32	0.9902155721
7.33	0.9769800541
7.34	0.9630748413
7.35	0.9485180033
7.36	0.9333279643
7.37	0.917523485
7.38	0.901123643
7.39	0.8841478147
7.4	0.866615656
7.41	0.8485470837
7.42	0.8299622563
7.43	0.8108815553
7.44	0.7913255661
7.45	0.7713150592
7.46	0.7508709711
7.47	0.7300143859
7.48	0.7087665159
7.49	0.6871486837
7.5	0.6651823029
7.51	0.6428888601
7.52	0.6202898963
7.53	0.5974069888
7.54	0.5742617332
7.55	0.5508757253
7.56	0.5272705434
7.57	0.5034677312
7.58	0.4794887799
7.59	0.4553551114
7.6	0.4310880614
7.61	0.4067088626
7.62	0.3822386285
7.63	0.3576983372
7.64	0.3331088156
7.65	0.3084907236
7.66	0.2838645391
7.67	0.2592505428
7.68	0.2346688035
7.69	0.2101391642
7.7	0.1856812273
7.71	0.1613143417
7.72	0.1370575888
7.73	0.1129297699
7.74	0.08894939363
7.75	0.06513466328
7.76	0.04150346524
7.77	0.01807335738
7.78	-0.005138442103
7.79	-0.0281150654
7.8	-0.05084000544
7.81	-0.07329712586
7.82	-0.09547067053
7.83	-0.1173452727
7.84	-0.1389059638
7.85	-0.1601381816
7.86	-0.1810277783
7.87	-0.2015610278
7.88	-0.2217246329
7.89	-0.2415057321
7.9	-0.2608919054
7.91	-0.2798711804
7.92	-0.2984320377
7.93	-0.3165634155
7.94	-0.3342547147
7.95	-0.3514958024
7.96	-0.3682770158
7.97	-0.3845891657
7.98	-0.4004235387
7.99	-0.4157719005
8	-0.430626497
8.01	-0.4449800565
8.02	-0.4588257904
8.03	-0.4721573946
8.04	-0.4849690491
8.05	-0.4972554184
8.06	-0.509011651
8.07	-0.5202333786
8.08	-0.5309167147
8.09	-0.5410582531
8.1	-0.550655066
8.11	-0.5597047014
8.12	-0.5682051807
8.13	-0.5761549955
8.14	-0.5835531038
8.15	-0.5903989267
8.16	-0.5966923443
8.17	-0.6024336906
8.18	-0.6076237493
8.19	-0.6122637487
8.2	-0.6163553559
8.21	-0.6199006711
8.22	-0.622902222
8.23	-0.6253629571
8.24	-0.627286239
8.25	-0.6286758378
8.26	-0.6295359241
8.27	-0.629871061
8.28	-0.6296861968
8.29	-0.6289866575
8.3	-0.6277781379
8.31	-0.6260666937
8.32	-0.6238587329
8.33	-0.6211610072
8.34	-0.6179806027
8.35	-0.6143249308
8.36	-0.6102017192
8.37	-0.6056190023
8.38	-0.6005851111
8.39	-0.5951086641
8.4	-0.5891985571
8.41	-0.5828639529
8.42	-0.5761142714
8.43	-0.5689591794
8.44	-0.5614085797
8.45	-0.5534726015
8.46	-0.5451615888
8.47	-0.5364860907
8.48	-0.5274568501
8.49	-0.5180847933
8.5	-0.508381019
8.51	-0.4983567876
8.52	-0.4880235103
8.53	-0.4773927382
8.54	-0.4664761517
8.55	-0.4552855491
8.56	-0.4438328364
8.57	-0.432130016
8.58	-0.420189176
8.59	-0.4080224794
8.6	-0.3956421536
8.61	-0.3830604794
8.62	-0.3702897808
8.63	-0.3573424141
8.64	-0.3442307574
8.65	-0.3309672006
8.66	-0.3175641349
8.67	-0.3040339427
8.68	-0.2903889872
8.69	-0.276641603
8.7	-0.262804086
8.71	-0.2488886833
8.72	-0.2349075846
8.73	-0.2208729117
8.74	-0.2067967101
8.75	-0.1926909392
8.76	-0.1785674639
8.77	-0.1644380454
8.78	-0.1503143329
8.79	-0.1362078549
8.8	-0.122130011
8.81	-0.1080920641
8.82	-0.09410513199
8.83	-0.08018018032
8.84	-0.06632801459
8.85	-0.05255927312
8.86	-0.03888441996
8.87	-0.02531373801
8.88	-0.01185732243
8.89	0.001474925817
8.9	0.01467330614
8.91	0.02772832426
8.92	0.04063069799
8.93	0.05337136268
8.94	0.06594147655
8.95	0.07833242567
8.96	0.09053582881
8.97	0.102543542
8.98	0.1143476626
8.99	0.1259405341
9	0.1373147488
9.01	0.1484631527
9.02	0.1593788477
9.03	0.1700551956
9.04	0.1804858204
9.05	0.190664611
9.06	0.2005857239
9.07	0.210243585
9.08	0.2196328917
9.09	0.2287486142
9.1	0.2375859974
9.11	0.2461405618
9.12	0.2544081043
9.13	0.2623846993
9.14	0.2700666988
9.15	0.2774507326
9.16	0.2845337087
9.17	0.2913128126
9.18	0.2977855073
9.19	0.3039495321
9.2	0.3098029022
9.21	0.3153439073
9.22	0.3205711104
9.23	0.3254833461
9.24	0.330079719
9.25	0.3343596016
9.26	0.3383226326
9.27	0.3419687137
9.28	0.3452980081
9.29	0.3483109367
9.3	0.351008176
9.31	0.3533906548
9.32	0.3554595507
9.33	0.3572162869
9.34	0.3586625283
9.35	0.3598001781
9.36	0.3606313737
9.37	0.3611584826
9.38	0.361384098
9.39	0.3613110349
9.4	0.360942325
9.41	0.3602812126
9.42	0.3593311493
9.43	0.3580957897
9.44	0.3565789857
9.45	0.3547847821
9.46	0.3527174106
9.47	0.3503812853
9.48	0.3477809964
9.49	0.3449213054
9.5	0.3418071391
9.51	0.3384435842
9.52	0.3348358809
9.53	0.3309894181
9.54	0.3269097264
9.55	0.3226024732
9.56	0.3180734556
9.57	0.3133285955
9.58	0.3083739324
9.59	0.3032156183
9.6	0.2978599106
9.61	0.2923131666
9.62	0.286581837
9.63	0.2806724597
9.64	0.2745916536
9.65	0.2683461125
9.66	0.2619425983
9.67	0.2553879358
9.68	0.2486890053
9.69	0.2418527374
9.7	0.2348861063
9.71	0.2277961235
9.72	0.2205898322
9.73	0.2132743007
9.74	0.2058566169
9.75	0.1983438816
9.76	0.1907432031
9.77	0.1830616911
9.78	0.1753064508
9.79	0.1674845773
9.8	0.1596031496
9.81	0.1516692253
9.82	0.1436898347
9.83	0.1356719754
9.84	0.127622607
9.85	0.1195486459
9.86	0.1114569594
9.87	0.1033543614
9.88	0.09524760686
9.89	0.08714338678
9.9	0.07904832367
9.91	0.07096896656
9.92	0.06291178646
9.93	0.0548831718
9.94	0.04688942399
9.95	0.03893675318
9.96	0.03103127399
9.97	0.02317900151
9.98	0.01538584733
9.99	0.007657615739
10	2.970577881e-16
10.01	-0.007581421189
10.02	-0.01508118714
10.03	-0.02249395848
10.04	-0.02981452033
10.05	-0.03703778532
10.06	-0.04415879652
10.07	-0.0511727302
10.08	-0.05807489846
10.09	-0.06486075172
10.1	-0.07152588109
10.11	-0.07806602055
10.12	-0.08447704907
10.13	-0.09075499255
10.14	-0.09689602556
10.15	-0.1028964731
10.16	-0.1087528119
10.17	-0.1144616722
10.18	-0.1200198386
10.19	-0.1254242512
10.2	-0.1306720069
10.21	-0.1357603598
10.22	-0.1406867222
10.23	-0.1454486649
10.24	-0.1500439178
10.25	-0.1544703703
10.26	-0.1587260709
10.27	-0.1628092279
10.28	-0.1667182087
10.29	-0.17045154
10.3	-0.1740079073
10.31	-0.1773861541
10.32	-0.1805852817
10.33	-0.1836044483
10.34	-0.1864429678
10.35	-0.1891003094
10.36	-0.1915760961
10.37	-0.1938701036
10.38	-0.1959822589
10.39	-0.197912639
10.4	-0.199661469
10.41	-0.2012291209
10.42	-0.2026161116
10.43	-0.203823101
10.44	-0.20485089
10.45	-0.2057004187
10.46	-0.2063727639
10.47	-0.2068691371
10.48	-0.2071908821
10.49	-0.2073394726
10.5	-0.2073165096
10.51	-0.2071237189
10.52	-0.2067629485
10.53	-0.2062361658
10.54	-0.2055454546
10.55	-0.2046930127
10.56	-0.2036811486
10.57	-0.2025122786
10.58	-0.2011889236
10.59	-0.1997137063
10.6	-0.1980893479
10.61	-0.1963186648
10.62	-0.1944045654
