temps	angle
0	0
0.01	0.750893275
0.02	1.495319015
0.03	2.232848573
0.04	2.963061164
0.05	3.685544078
0.06	4.399892877
0.07	5.105711594
0.08	5.802612919
0.09	6.49021838
0.1	7.168158516
0.11	7.836073047
0.12	8.493611027
0.13	9.140431003
0.14	9.776201153
0.15	10.40059943
0.16	11.01331369
0.17	11.6140418
0.18	12.20249178
0.19	12.77838189
0.2	13.34144074
0.21	13.89140739
0.22	14.42803139
0.23	14.95107292
0.24	15.46030283
0.25	15.9555027
0.26	16.4364649
0.27	16.90299264
0.28	17.3549
0.29	17.79201199
0.3	18.21416454
0.31	18.62120456
0.32	19.01298989
0.33	19.38938937
0.34	19.75028282
0.35	20.09556099
0.36	20.42512559
0.37	20.73888925
0.38	21.03677548
0.39	21.31871865
0.4	21.58466393
0.41	21.83456724
0.42	22.06839522
0.43	22.28612512
0.44	22.48774478
0.45	22.6732525
0.46	22.84265702
0.47	22.99597737
0.48	23.13324281
0.49	23.25449273
0.5	23.35977653
0.51	23.44915353
0.52	23.52269281
0.53	23.58047313
0.54	23.6225828
0.55	23.64911951
0.56	23.66019024
0.57	23.65591108
0.58	23.6364071
0.59	23.60181219
0.6	23.55226892
0.61	23.48792835
0.62	23.40894988
0.63	23.3155011
0.64	23.20775759
0.65	23.08590275
0.66	22.95012761
0.67	22.80063068
0.68	22.63761773
0.69	22.46130159
0.7	22.27190201
0.71	22.06964539
0.72	21.85476465
0.73	21.62749899
0.74	21.38809368
0.75	21.13679989
0.76	20.87387442
0.77	20.59957956
0.78	20.31418283
0.79	20.01795678
0.8	19.71117879
0.81	19.3941308
0.82	19.06709916
0.83	18.73037438
0.84	18.38425087
0.85	18.0290268
0.86	17.66500381
0.87	17.29248683
0.88	16.91178381
0.89	16.52320555
0.9	16.12706545
0.91	15.72367929
0.92	15.31336501
0.93	14.89644247
0.94	14.47323326
0.95	14.04406046
0.96	13.60924841
0.97	13.16912253
0.98	12.72400905
0.99	12.27423483
1	11.82012712
1.01	11.36201337
1.02	10.900221
1.03	10.4350772
1.04	9.966908696
1.05	9.496041585
1.06	9.022801093
1.07	8.547511389
1.08	8.07049538
1.09	7.592074513
1.1	7.112568583
1.11	6.632295532
1.12	6.151571268
1.13	5.670709471
1.14	5.190021408
1.15	4.709815757
1.16	4.230398425
1.17	3.75207237
1.18	3.275137436
1.19	2.799890179
1.2	2.326623701
1.21	1.855627495
1.22	1.38718728
1.23	0.9215848501
1.24	0.4590979248
1.25	2.228357493e-15
1.26	-0.4554397935
1.27	-0.9069568288
1.28	-1.354291118
1.29	-1.797187443
1.3	-2.235395481
1.31	-2.668669929
1.32	-3.096770621
1.33	-3.519462642
1.34	-3.936516436
1.35	-4.347707914
1.36	-4.752818555
1.37	-5.1516355
1.38	-5.543951646
1.39	-5.929565735
1.4	-6.308282434
1.41	-6.679912415
1.42	-7.044272433
1.43	-7.401185388
1.44	-7.750480398
1.45	-8.091992856
1.46	-8.425564486
1.47	-8.751043396
1.48	-9.068284122
1.49	-9.377147676
1.5	-9.677501579
1.51	-9.969219899
1.52	-10.25218328
1.53	-10.52627895
1.54	-10.79140077
1.55	-11.04744924
1.56	-11.29433148
1.57	-11.5319613
1.58	-11.76025913
1.59	-11.97915207
1.6	-12.18857387
1.61	-12.3884649
1.62	-12.57877218
1.63	-12.75944931
1.64	-12.93045649
1.65	-13.09176045
1.66	-13.24333447
1.67	-13.38515831
1.68	-13.51721817
1.69	-13.63950667
1.7	-13.7520228
1.71	-13.85477183
1.72	-13.94776532
1.73	-14.03102102
1.74	-14.10456282
1.75	-14.16842067
1.76	-14.22263056
1.77	-14.26723439
1.78	-14.30227992
1.79	-14.32782073
1.8	-14.34391606
1.81	-14.3506308
1.82	-14.34803536
1.83	-14.33620559
1.84	-14.31522272
1.85	-14.28517321
1.86	-14.24614867
1.87	-14.19824581
1.88	-14.14156627
1.89	-14.07621652
1.9	-14.00230782
1.91	-13.91995604
1.92	-13.82928157
1.93	-13.73040922
1.94	-13.62346807
1.95	-13.50859142
1.96	-13.38591658
1.97	-13.25558482
1.98	-13.11774123
1.99	-12.97253457
2	-12.82011718
2.01	-12.66064482
2.02	-12.49427658
2.03	-12.32117471
2.04	-12.14150453
2.05	-11.95543427
2.06	-11.76313495
2.07	-11.56478023
2.08	-11.36054633
2.09	-11.15061181
2.1	-10.93515752
2.11	-10.71436642
2.12	-10.48842344
2.13	-10.25751539
2.14	-10.02183076
2.15	-9.781559648
2.16	-9.536893575
2.17	-9.28802538
2.18	-9.035149077
2.19	-8.778459716
2.2	-8.518153253
2.21	-8.254426418
2.22	-7.987476578
2.23	-7.717501605
2.24	-7.444699749
2.25	-7.169269501
2.26	-6.891409466
2.27	-6.611318236
2.28	-6.329194257
2.29	-6.045235707
2.3	-5.759640367
2.31	-5.472605499
2.32	-5.184327722
2.33	-4.895002887
2.34	-4.604825963
2.35	-4.313990915
2.36	-4.022690585
2.37	-3.73111658
2.38	-3.439459156
2.39	-3.147907108
2.4	-2.856647658
2.41	-2.565866347
2.42	-2.27574693
2.43	-1.98647127
2.44	-1.698219237
2.45	-1.411168608
2.46	-1.125494969
2.47	-0.8413716159
2.48	-0.5589694671
2.49	-0.2784569672
2.5	-2.703134281e-15
2.51	0.2762381984
2.52	0.5500971237
2.53	0.8214190852
2.54	1.090049285
2.55	1.355835896
2.56	1.618630133
2.57	1.878286328
2.58	2.134661998
2.59	2.387617911
2.6	2.637018149
2.61	2.882730173
2.62	3.124624878
2.63	3.362576649
2.64	3.596463417
2.65	3.826166706
2.66	4.051571684
2.67	4.272567206
2.68	4.489045856
2.69	4.700903989
2.7	4.908041766
2.71	5.110363186
2.72	5.307776124
2.73	5.500192351
2.74	5.687527566
2.75	5.869701417
2.76	6.046637522
2.77	6.218263486
2.78	6.384510914
2.79	6.545315429
2.8	6.700616674
2.81	6.850358326
2.82	6.994488095
2.83	7.132957728
2.84	7.265723007
2.85	7.392743748
2.86	7.51398379
2.87	7.629410989
2.88	7.738997209
2.89	7.842718304
2.9	7.940554103
2.91	8.032488394
2.92	8.1185089
2.93	8.198607255
2.94	8.272778982
2.95	8.34102346
2.96	8.403343899
2.97	8.459747303
2.98	8.510244437
2.99	8.55484979
3	8.593581537
3.01	8.626461496
3.02	8.653515084
3.03	8.674771277
3.04	8.690262558
3.05	8.70002487
3.06	8.704097564
3.07	8.70252335
3.08	8.695348236
3.09	8.682621481
3.1	8.664395529
3.11	8.640725954
3.12	8.6116714
3.13	8.577293516
3.14	8.537656894
3.15	8.492829002
3.16	8.442880121
3.17	8.387883274
3.18	8.327914159
3.19	8.263051078
3.2	8.193374864
3.21	8.118968813
3.22	8.039918608
3.23	7.956312243
3.24	7.868239952
3.25	7.77579413
3.26	7.679069255
3.27	7.578161815
3.28	7.473170226
3.29	7.364194755
3.3	7.251337437
3.31	7.134702001
3.32	7.014393785
3.33	6.890519658
3.34	6.763187937
3.35	6.632508305
3.36	6.498591731
3.37	6.36155039
3.38	6.221497576
3.39	6.078547624
3.4	5.932815826
3.41	5.784418351
3.42	5.633472161
3.43	5.48009493
3.44	5.324404963
3.45	5.166521112
3.46	5.006562701
3.47	4.844649438
3.48	4.68090134
3.49	4.51543865
3.5	4.34838176
3.51	4.17985113
3.52	4.009967211
3.53	3.838850368
3.54	3.666620801
3.55	3.493398472
3.56	3.319303024
3.57	3.144453713
3.58	2.96896933
3.59	2.792968129
3.6	2.616567756
3.61	2.439885174
3.62	2.263036601
3.63	2.086137431
3.64	1.909302175
3.65	1.732644389
3.66	1.556276608
3.67	1.380310287
3.68	1.20485573
3.69	1.030022034
3.7	0.855917027
3.71	0.6826472058
3.72	0.5103176813
3.73	0.3390321197
3.74	0.168892688
3.75	2.459300728e-15
3.76	-0.1675469367
3.77	-0.3336507713
3.78	-0.4982158597
3.79	-0.6611483121
3.8	-0.8223560403
3.81	-0.9817488023
3.82	-1.139238246
3.83	-1.29473795
3.84	-1.448163466
3.85	-1.599432358
3.86	-1.748464234
3.87	-1.895180789
3.88	-2.039505833
3.89	-2.181365329
3.9	-2.320687416
3.91	-2.457402446
3.92	-2.591443006
3.93	-2.722743945
3.94	-2.851242398
3.95	-2.97687781
3.96	-3.099591955
3.97	-3.219328954
3.98	-3.336035295
3.99	-3.449659847
4	-3.560153873
4.01	-3.667471046
4.02	-3.771567454
4.03	-3.872401617
4.04	-3.969934485
4.05	-4.064129452
4.06	-4.154952355
4.07	-4.242371478
4.08	-4.326357556
4.09	-4.406883769
4.1	-4.483925743
4.11	-4.557461545
4.12	-4.627471681
4.13	-4.693939083
4.14	-4.756849107
4.15	-4.816189519
4.16	-4.871950485
4.17	-4.924124559
4.18	-4.972706667
4.19	-5.017694093
4.2	-5.059086462
4.21	-5.096885719
4.22	-5.131096113
4.23	-5.161724173
4.24	-5.188778687
4.25	-5.212270679
4.26	-5.232213382
4.27	-5.248622213
4.28	-5.261514746
4.29	-5.270910683
4.3	-5.276831824
4.31	-5.279302038
4.32	-5.278347228
4.33	-5.273995302
4.34	-5.266276135
4.35	-5.255221536
4.36	-5.240865213
4.37	-5.223242736
4.38	-5.202391495
4.39	-5.178350668
4.4	-5.151161178
4.41	-5.12086565
4.42	-5.087508376
4.43	-5.051135269
4.44	-5.011793821
4.45	-4.969533061
4.46	-4.92440351
4.47	-4.876457137
4.48	-4.825747314
4.49	-4.772328769
4.5	-4.716257543
4.51	-4.657590941
4.52	-4.596387485
4.53	-4.532706868
4.54	-4.466609903
4.55	-4.398158479
4.56	-4.327415511
4.57	-4.25444489
4.58	-4.179311434
4.59	-4.102080841
4.6	-4.022819638
4.61	-3.94159513
4.62	-3.858475355
4.63	-3.773529029
4.64	-3.6868255
4.65	-3.598434697
4.66	-3.508427079
4.67	-3.416873586
4.68	-3.323845593
4.69	-3.229414855
4.7	-3.133653459
4.71	-3.036633778
4.72	-2.93842842
4.73	-2.839110178
4.74	-2.738751983
4.75	-2.637426858
4.76	-2.535207863
4.77	-2.432168058
4.78	-2.328380446
4.79	-2.223917934
4.8	-2.11885328
4.81	-2.013259053
4.82	-1.907207585
4.83	-1.800770927
4.84	-1.694020802
4.85	-1.587028567
4.86	-1.479865164
4.87	-1.372601082
4.88	-1.265306312
4.89	-1.158050308
4.9	-1.050901944
4.91	-0.943929478
4.92	-0.8372005089
4.93	-0.7307819407
4.94	-0.6247399439
4.95	-0.519139919
4.96	-0.4140464601
4.97	-0.3095233199
4.98	-0.2056333752
4.99	-0.1024385935
5	-1.988855057e-15
5.01	0.1016223541
5.02	0.2023694225
5.03	0.302183194
5.04	0.4010067219
5.05	0.4987841517
5.06	0.5954607487
5.07	0.6909829247
5.08	0.7852982629
5.09	0.8783555427
5.1	0.9701047631
5.11	1.060497165
5.12	1.149485254
5.13	1.237022819
5.14	1.323064952
5.15	1.40756807
5.16	1.490489927
5.17	1.571789636
5.18	1.651427681
5.19	1.729365933
5.2	1.805567662
5.21	1.879997553
5.22	1.952621714
5.23	2.023407688
5.24	2.092324463
5.25	2.159342477
5.26	2.224433633
5.27	2.287571296
5.28	2.348730307
5.29	2.407886982
5.3	2.465019118
5.31	2.520105993
5.32	2.573128372
5.33	2.624068503
5.34	2.67291012
5.35	2.719638439
5.36	2.764240158
5.37	2.806703451
5.38	2.847017969
5.39	2.885174827
5.4	2.921166606
5.41	2.954987342
5.42	2.986632517
5.43	3.016099055
5.44	3.043385309
5.45	3.068491049
5.46	3.091417458
5.47	3.11216711
5.48	3.130743968
5.49	3.14715336
5.5	3.161401974
5.51	3.173497834
5.52	3.183450293
5.53	3.19127001
5.54	3.196968934
5.55	3.200560287
5.56	3.202058548
5.57	3.201479427
5.58	3.19883985
5.59	3.194157938
5.6	3.187452985
5.61	3.178745435
5.62	3.168056862
5.63	3.155409946
5.64	3.140828447
5.65	3.124337187
5.66	3.105962021
5.67	3.085729812
5.68	3.063668407
5.69	3.039806613
5.7	3.014174166
5.71	2.98680171
5.72	2.957720765
5.73	2.926963702
5.74	2.894563717
5.75	2.860554799
5.76	2.824971706
5.77	2.787849934
5.78	2.749225687
5.79	2.709135851
5.8	2.667617964
5.81	2.624710185
5.82	2.580451266
5.83	2.534880521
5.84	2.488037799
5.85	2.439963449
5.86	2.390698295
5.87	2.340283602
5.88	2.288761052
5.89	2.236172703
5.9	2.182560971
5.91	2.127968591
5.92	2.072438591
5.93	2.01601426
5.94	1.958739122
5.95	1.9006569
5.96	1.841811489
5.97	1.782246928
5.98	1.722007369
5.99	1.661137047
6	1.599680252
6.01	1.537681298
6.02	1.475184497
6.03	1.412234128
6.04	1.348874411
6.05	1.285149478
6.06	1.221103342
6.07	1.156779875
6.08	1.092222778
6.09	1.027475555
6.1	0.9625814837
6.11	0.8975835944
6.12	0.83252464
6.13	0.7674470723
6.14	0.7023930172
6.15	0.6374042495
6.16	0.572522169
6.17	0.5077877769
6.18	0.4432416526
6.19	0.3789239304
6.2	0.3148742776
6.21	0.2511318726
6.22	0.1877353834
6.23	0.1247229467
6.24	0.06213214769
6.25	1.507876962e-15
6.26	-0.06163707345
6.27	-0.1227432593
6.28	-0.183283372
6.29	-0.2432228716
6.3	-0.3025278806
6.31	-0.3611652008
6.32	-0.4191023292
6.33	-0.4763074735
6.34	-0.5327495668
6.35	-0.588398282
6.36	-0.6432240453
6.37	-0.6971980495
6.38	-0.7502922663
6.39	-0.8024794582
6.4	-0.8537331899
6.41	-0.9040278387
6.42	-0.9533386049
6.43	-1.001641521
6.44	-1.04891346
6.45	-1.095132145
6.46	-1.140276156
6.47	-1.184324937
6.48	-1.2272588
6.49	-1.269058937
6.5	-1.309707417
6.51	-1.349187199
6.52	-1.387482127
6.53	-1.424576943
6.54	-1.46045728
6.55	-1.495109672
6.56	-1.52852155
6.57	-1.560681249
6.58	-1.591578
6.59	-1.621201938
6.6	-1.649544096
6.61	-1.676596406
6.62	-1.702351696
6.63	-1.726803687
6.64	-1.749946991
6.65	-1.771777109
6.66	-1.792290422
6.67	-1.811484191
6.68	-1.82935655
6.69	-1.845906499
6.7	-1.8611339
6.71	-1.87503947
6.72	-1.887624771
6.73	-1.898892204
6.74	-1.908845004
6.75	-1.917487225
6.76	-1.924823735
6.77	-1.930860207
6.78	-1.935603104
6.79	-1.939059676
6.8	-1.941237943
6.81	-1.942146683
6.82	-1.941795429
6.83	-1.940194444
6.84	-1.937354722
6.85	-1.933287962
6.86	-1.928006566
6.87	-1.921523619
6.88	-1.913852876
6.89	-1.90500875
6.9	-1.895006295
6.91	-1.883861194
6.92	-1.871589738
6.93	-1.85820882
6.94	-1.84373591
6.95	-1.828189046
6.96	-1.811586812
6.97	-1.793948327
6.98	-1.775293225
6.99	-1.755641641
7	-1.735014189
7.01	-1.713431953
7.02	-1.69091646
7.03	-1.667489669
7.04	-1.643173955
7.05	-1.617992084
7.06	-1.5919672
7.07	-1.565122809
7.08	-1.537482755
7.09	-1.509071207
7.1	-1.47991264
7.11	-1.450031814
7.12	-1.419453757
7.13	-1.388203751
7.14	-1.356307305
7.15	-1.323790145
7.16	-1.290678193
7.17	-1.256997546
7.18	-1.222774459
7.19	-1.188035332
7.2	-1.152806683
7.21	-1.117115137
7.22	-1.080987405
7.23	-1.044450266
7.24	-1.007530549
7.25	-0.9702551185
7.26	-0.932650852
7.27	-0.894744626
7.28	-0.8565632974
7.29	-0.8181336866
7.3	-0.7794825604
7.31	-0.7406366153
7.32	-0.7016224606
7.33	-0.6624666021
7.34	-0.623195426
7.35	-0.5838351823
7.36	-0.5444119697
7.37	-0.5049517191
7.38	-0.4654801791
7.39	-0.4260229001
7.4	-0.3866052199
7.41	-0.3472522489
7.42	-0.3079888553
7.43	-0.268839652
7.44	-0.2298289815
7.45	-0.1909809033
7.46	-0.1523191804
7.47	-0.1138672659
7.48	-0.07564829116
7.49	-0.03768505253
7.5	-1.09748833e-15
7.51	0.03738477482
7.52	0.07444755004
7.53	0.1111669846
7.54	0.1475221288
7.55	0.183492435
7.56	0.2190577675
7.57	0.2541984122
7.58	0.2888950861
7.59	0.3231289462
7.6	0.3568815981
7.61	0.3901351045
7.62	0.4228719929
7.63	0.4550752632
7.64	0.4867283952
7.65	0.5178153549
7.66	0.5483206014
7.67	0.5782290929
7.68	0.6075262924
7.69	0.6361981728
7.7	0.6642312225
7.71	0.6916124493
7.72	0.7183293851
7.73	0.7443700896
7.74	0.7697231541
7.75	0.7943777038
7.76	0.8183234017
7.77	0.8415504501
7.78	0.8640495929
7.79	0.8858121174
7.8	0.9068298554
7.81	0.9270951843
7.82	0.9466010274
7.83	0.9653408544
7.84	0.9833086811
7.85	1.000499069
7.86	1.016907124
7.87	1.032528497
7.88	1.047359379
7.89	1.061396503
7.9	1.074637139
7.91	1.087079092
7.92	1.098720701
7.93	1.109560835
7.94	1.119598887
7.95	1.128834772
7.96	1.137268927
7.97	1.144902297
7.98	1.151736341
7.99	1.157773019
8	1.163014791
8.01	1.16746461
8.02	1.171125915
8.03	1.174002628
8.04	1.176099145
8.05	1.17742033
8.06	1.177971509
8.07	1.177758462
8.08	1.176787416
8.09	1.175065037
8.1	1.172598423
8.11	1.169395094
8.12	1.165462988
8.13	1.160810447
8.14	1.155446214
8.15	1.149379418
8.16	1.142619573
8.17	1.135176559
8.18	1.127060622
8.19	1.118282358
8.2	1.108852708
8.21	1.098782944
8.22	1.088084662
8.23	1.076769771
8.24	1.064850483
8.25	1.052339301
8.26	1.039249013
8.27	1.025592676
8.28	1.011383609
8.29	0.9966353829
8.3	0.9813618058
8.31	0.9655769161
8.32	0.9492949697
8.33	0.9325304296
8.34	0.915297955
8.35	0.89761239
8.36	0.8794887526
8.37	0.8609422239
8.38	0.8419881366
8.39	0.8226419644
8.4	0.8029193102
8.41	0.7828358959
8.42	0.7624075506
8.43	0.7416501995
8.44	0.7205798537
8.45	0.6992125981
8.46	0.6775645812
8.47	0.6556520039
8.48	0.6334911087
8.49	0.6110981687
8.5	0.5884894771
8.51	0.5656813365
8.52	0.5426900483
8.53	0.5195319019
8.54	0.4962231647
8.55	0.4727800716
8.56	0.4492188149
8.57	0.4255555339
8.58	0.4018063052
8.59	0.3779871328
8.6	0.3541139383
8.61	0.3302025511
8.62	0.3062686993
8.63	0.2823280001
8.64	0.2583959507
8.65	0.2344879191
8.66	0.2106191356
8.67	0.1868046836
8.68	0.1630594915
8.69	0.1393983237
8.7	0.1158357733
8.71	0.09238625295
8.72	0.06906398793
8.73	0.04588300794
8.74	0.02285713977
8.75	7.76603708e-16
8.76	-0.02267501214
8.77	-0.04515472164
8.78	-0.06742618448
8.79	-0.08947669408
8.8	-0.1112937876
8.81	-0.1328652522
8.82	-0.1541791307
8.83	-0.1752237272
8.84	-0.1959876129
8.85	-0.2164596312
8.86	-0.2366289023
8.87	-0.2564848288
8.88	-0.2760170996
8.89	-0.2952156946
8.9	-0.3140708888
8.91	-0.3325732561
8.92	-0.3507136732
8.93	-0.3684833229
8.94	-0.3858736975
8.95	-0.4028766016
8.96	-0.4194841551
8.97	-0.4356887958
8.98	-0.4514832815
8.99	-0.4668606924
9	-0.4818144328
9.01	-0.4963382327
9.02	-0.5104261497
9.03	-0.5240725696
9.04	-0.537272208
9.05	-0.5500201105
9.06	-0.5623116537
9.07	-0.5741425456
9.08	-0.5855088253
9.09	-0.5964068631
9.1	-0.6068333604
9.11	-0.616785349
9.12	-0.6262601906
9.13	-0.6352555753
9.14	-0.6437695212
9.15	-0.6518003726
9.16	-0.6593467988
9.17	-0.6664077919
9.18	-0.6729826652
9.19	-0.6790710513
9.2	-0.6846728992
9.21	-0.6897884724
9.22	-0.6944183457
9.23	-0.6985634029
9.24	-0.7022248333
9.25	-0.7054041287
9.26	-0.70810308
9.27	-0.7103237738
9.28	-0.7120685884
9.29	-0.7133401901
9.3	-0.7141415295
9.31	-0.7144758366
9.32	-0.7143466172
9.33	-0.713757648
9.34	-0.7127129723
9.35	-0.711216895
9.36	-0.7092739781
9.37	-0.706889035
9.38	-0.7040671265
9.39	-0.7008135544
9.4	-0.697133857
9.41	-0.6930338031
9.42	-0.688519387
9.43	-0.6835968223
9.44	-0.6782725363
9.45	-0.6725531644
9.46	-0.6664455439
9.47	-0.6599567079
9.48	-0.6530938795
9.49	-0.6458644657
9.5	-0.6382760505
9.51	-0.6303363893
9.52	-0.6220534022
9.53	-0.6134351678
9.54	-0.6044899163
9.55	-0.5952260235
9.56	-0.5856520039
9.57	-0.5757765042
9.58	-0.5656082967
9.59	-0.5551562725
9.6	-0.5444294351
9.61	-0.5334368933
9.62	-0.522187855
9.63	-0.51069162
9.64	-0.4989575733
9.65	-0.4869951789
9.66	-0.4748139724
9.67	-0.4624235546
9.68	-0.4498335848
9.69	-0.437053774
9.7	-0.4240938784
9.71	-0.4109636924
9.72	-0.3976730425
9.73	-0.3842317801
9.74	-0.3706497754
9.75	-0.3569369108
9.76	-0.3431030742
9.77	-0.329158153
9.78	-0.3151120272
9.79	-0.3009745634
9.8	-0.2867556087
9.81	-0.2724649842
9.82	-0.2581124787
9.83	-0.2437078434
9.84	-0.229260785
9.85	-0.2147809606
9.86	-0.2002779712
9.87	-0.1857613562
9.88	-0.1712405882
9.89	-0.1567250664
9.9	-0.1422241123
9.91	-0.1277469633
9.92	-0.113302768
9.93	-0.09890058093
9.94	-0.08454935726
9.95	-0.07025794798
9.96	-0.05603509495
9.97	-0.04188942616
9.98	-0.02782945108
9.99	-0.01386355606
10	-5.383245249e-16
10.01	0.01375309007
10.02	0.02738772311
10.03	0.04089604815
10.04	0.05427035829
10.05	0.06750309444
10.06	0.08058684908
10.07	0.09351436983
10.08	0.1062785628
10.09	0.1188724962
10.1	0.1312894029
10.11	0.1435226842
10.12	0.1555659124
10.13	0.1674128335
10.14	0.17905737
10.15	0.1904936234
10.16	0.2017158764
10.17	0.2127185956
10.18	0.2234964329
10.19	0.2340442283
10.2	0.2443570109
10.21	0.2544300013
10.22	0.2642586128
10.23	0.2738384526
10.24	0.2831653238
10.25	0.2922352258
10.26	0.3010443557
10.27	0.3095891093
10.28	0.3178660814
10.29	0.3258720667
10.3	0.3336040605
10.31	0.3410592583
10.32	0.348235057
10.33	0.3551290541
10.34	0.3617390481
10.35	0.3680630384
10.36	0.3740992247
10.37	0.3798460065
10.38	0.3853019832
10.39	0.3904659524
10.4	0.39533691
10.41	0.3999140489
10.42	0.4041967576
10.43	0.4081846199
10.44	0.4118774127
10.45	0.4152751053
10.46	0.4183778572
10.47	0.4211860174
10.48	0.4237001216
10.49	0.4259208914
10.5	0.4278492315
10.51	0.4294862283
10.52	0.4308331471
10.53	0.4318914307
10.54	0.4326626961
10.55	0.433148733
10.56	0.4333515005
10.57	0.433273125
10.58	0.4329158971
10.59	0.4322822693
10.6	0.4313748526
10.61	0.4301964138
10.62	0.4287498728
10.63	0.4270382987
10.64	0.4250649075
10.65	0.4228330582
10.66	0.4203462498
10.67	0.417608118
10.68	0.4146224316
