temps	angle
0	0
0.01	0.7821341748
0.02	1.557254983
0.03	2.324644058
0.04	3.083596482
0.05	3.833421377
0.06	4.573442493
0.07	5.302998756
0.08	6.021444815
0.09	6.72815156
0.1	7.422506618
0.11	8.103914833
0.12	8.771798725
0.13	9.425598925
0.14	10.06477459
0.15	10.68880378
0.16	11.29718387
0.17	11.88943185
0.18	12.46508469
0.19	13.0236996
0.2	13.56485436
0.21	14.08814756
0.22	14.59319879
0.23	15.07964895
0.24	15.54716033
0.25	15.99541685
0.26	16.4241242
0.27	16.83300991
0.28	17.2218235
0.29	17.59033653
0.3	17.93834265
0.31	18.26565765
0.32	18.57211946
0.33	18.85758811
0.34	19.12194574
0.35	19.36509649
0.36	19.58696647
0.37	19.78750363
0.38	19.96667763
0.39	20.12447972
0.4	20.26092258
0.41	20.37604011
0.42	20.46988724
0.43	20.54253971
0.44	20.59409383
0.45	20.62466623
0.46	20.63439354
0.47	20.62343215
0.48	20.59195785
0.49	20.54016553
0.5	20.46826883
0.51	20.37649974
0.52	20.26510829
0.53	20.13436209
0.54	19.98454596
0.55	19.8159615
0.56	19.62892665
0.57	19.42377524
0.58	19.20085657
0.59	18.96053486
0.6	18.70318883
0.61	18.42921119
0.62	18.13900814
0.63	17.83299884
0.64	17.5116149
0.65	17.17529984
0.66	16.82450857
0.67	16.45970685
0.68	16.0813707
0.69	15.68998586
0.7	15.28604727
0.71	14.87005844
0.72	14.44253089
0.73	14.00398363
0.74	13.55494251
0.75	13.09593969
0.76	12.62751302
0.77	12.1502055
0.78	11.66456465
0.79	11.17114199
0.8	10.67049237
0.81	10.16317348
0.82	9.649745202
0.83	9.130769065
0.84	8.606807671
0.85	8.078424113
0.86	7.546181419
0.87	7.010641982
0.88	6.472367008
0.89	5.931915964
0.9	5.389846033
0.91	4.846711575
0.92	4.303063595
0.93	3.759449223
0.94	3.216411194
0.95	2.674487343
0.96	2.134210106
0.97	1.596106034
0.98	1.060695309
0.99	0.5284912796
1	2.052263247e-15
1.01	-0.5242802161
1.02	-1.043859232
1.03	-1.558255512
1.04	-2.066996535
1.05	-2.569619194
1.06	-3.065670182
1.07	-3.55470637
1.08	-4.036295166
1.09	-4.510014864
1.1	-4.975454978
1.11	-5.432216564
1.12	-5.879912525
1.13	-6.318167905
1.14	-6.746620164
1.15	-7.164919443
1.16	-7.572728813
1.17	-7.969724508
1.18	-8.355596142
1.19	-8.730046916
1.2	-9.092793802
1.21	-9.443567718
1.22	-9.782113686
1.23	-10.10819098
1.24	-10.42157323
1.25	-10.72204856
1.26	-11.00941969
1.27	-11.28350398
1.28	-11.54413352
1.29	-11.79115519
1.3	-12.02443067
1.31	-12.24383648
1.32	-12.44926397
1.33	-12.64061933
1.34	-12.81782355
1.35	-12.98081237
1.36	-13.12953627
1.37	-13.26396034
1.38	-13.38406427
1.39	-13.48984217
1.4	-13.58130256
1.41	-13.65846814
1.42	-13.72137575
1.43	-13.77007616
1.44	-13.80463393
1.45	-13.82512721
1.46	-13.83164763
1.47	-13.82429999
1.48	-13.80320213
1.49	-13.7684847
1.5	-13.7202909
1.51	-13.65877625
1.52	-13.58410832
1.53	-13.49646652
1.54	-13.39604177
1.55	-13.28303622
1.56	-13.15766301
1.57	-13.02014592
1.58	-12.87071906
1.59	-12.7096266
1.6	-12.5371224
1.61	-12.3534697
1.62	-12.15894077
1.63	-11.9538166
1.64	-11.7383865
1.65	-11.51294778
1.66	-11.27780536
1.67	-11.03327145
1.68	-10.77966514
1.69	-10.51731205
1.7	-10.24654391
1.71	-9.967698256
1.72	-9.681117973
1.73	-9.387150953
1.74	-9.086149689
1.75	-8.778470894
1.76	-8.464475107
1.77	-8.144526307
1.78	-7.818991516
1.79	-7.488240412
1.8	-7.152644939
1.81	-6.812578916
1.82	-6.468417648
1.83	-6.12053754
1.84	-5.769315714
1.85	-5.415129624
1.86	-5.058356676
1.87	-4.699373856
1.88	-4.338557351
1.89	-3.976282182
1.9	-3.612921841
1.91	-3.248847926
1.92	-2.884429787
1.93	-2.520034176
1.94	-2.1560249
1.95	-1.792762479
1.96	-1.430603817
1.97	-1.06990187
1.98	-0.7110053284
1.99	-0.3542582989
2	-2.751346388e-15
2.01	0.3514355386
2.02	0.6997197684
2.03	1.044529907
2.04	1.385549213
2.05	1.722467256
2.06	2.054980178
2.07	2.382790938
2.08	2.705609561
2.09	3.023153371
2.1	3.33514721
2.11	3.641323657
2.12	3.941423235
2.13	4.235194601
2.14	4.522394739
2.15	4.802789131
2.16	5.076151926
2.17	5.342266099
2.18	5.600923591
2.19	5.851925451
2.2	6.09508196
2.21	6.330212747
2.22	6.557146897
2.23	6.77572304
2.24	6.985789444
2.25	7.187204086
2.26	7.379834714
2.27	7.563558907
2.28	7.738264114
2.29	7.90384769
2.3	8.06021692
2.31	8.207289032
2.32	8.344991198
2.33	8.473260532
2.34	8.59204407
2.35	8.701298746
2.36	8.800991355
2.37	8.891098507
2.38	8.971606575
2.39	9.042511627
2.4	9.103819356
2.41	9.155544995
2.42	9.197713228
2.43	9.230358087
2.44	9.253522848
2.45	9.267259911
2.46	9.271630674
2.47	9.266705403
2.48	9.252563089
2.49	9.229291301
2.5	9.196986029
2.51	9.155751522
2.52	9.105700116
2.53	9.046952061
2.54	8.979635334
2.55	8.903885452
2.56	8.819845276
2.57	8.72766481
2.58	8.627500992
2.59	8.519517486
2.6	8.403884462
2.61	8.280778376
2.62	8.15038174
2.63	8.012882896
2.64	7.868475781
2.65	7.717359684
2.66	7.559739009
2.67	7.395823028
2.68	7.225825636
2.69	7.049965095
2.7	6.868463787
2.71	6.681547954
2.72	6.489447446
2.73	6.292395459
2.74	6.090628278
2.75	5.884385014
2.76	5.673907344
2.77	5.459439249
2.78	5.241226753
2.79	5.019517658
2.8	4.794561285
2.81	4.566608213
2.82	4.335910015
2.83	4.102719006
2.84	3.867287975
2.85	3.629869939
2.86	3.39071788
2.87	3.150084499
2.88	2.908221963
2.89	2.665381655
2.9	2.421813935
2.91	2.177767891
2.92	1.933491108
2.93	1.689229425
2.94	1.44522671
2.95	1.201724627
2.96	0.9589624163
2.97	0.7171766709
2.98	0.4766011245
2.99	0.2374664392
3	2.766423957e-15
3.01	-0.2355742864
3.02	-0.4690361874
3.03	-0.7001693351
3.04	-0.9287614121
3.05	-1.154604331
3.06	-1.377494407
3.07	-1.597232531
3.08	-1.813624326
3.09	-2.026480307
3.1	-2.235616031
3.11	-2.440852242
3.12	-2.642015004
3.13	-2.83893584
3.14	-3.031451849
3.15	-3.219405831
3.16	-3.402646393
3.17	-3.581028057
3.18	-3.754411359
3.19	-3.922662937
3.2	-4.08565562
3.21	-4.2432685
3.22	-4.39538701
3.23	-4.54190298
3.24	-4.682714702
3.25	-4.817726974
3.26	-4.946851145
3.27	-5.070005155
3.28	-5.187113557
3.29	-5.298107548
3.3	-5.402924977
3.31	-5.501510362
3.32	-5.593814884
3.33	-5.67979639
3.34	-5.759419376
3.35	-5.832654976
3.36	-5.89948093
3.37	-5.959881561
3.38	-6.013847732
3.39	-6.06137681
3.4	-6.10247261
3.41	-6.137145343
3.42	-6.165411554
3.43	-6.187294058
3.44	-6.202821862
3.45	-6.21203009
3.46	-6.2149599
3.47	-6.211658392
3.48	-6.202178516
3.49	-6.18657897
3.5	-6.164924099
3.51	-6.137283782
3.52	-6.103733321
3.53	-6.064353322
3.54	-6.019229571
3.55	-5.968452906
3.56	-5.912119092
3.57	-5.850328677
3.58	-5.783186862
3.59	-5.710803353
3.6	-5.63329222
3.61	-5.550771742
3.62	-5.463364263
3.63	-5.371196032
3.64	-5.274397048
3.65	-5.173100898
3.66	-5.0674446
3.67	-4.957568433
3.68	-4.843615773
3.69	-4.725732927
3.7	-4.604068962
3.71	-4.478775532
3.72	-4.350006711
3.73	-4.217918814
3.74	-4.082670228
3.75	-3.944421233
3.76	-3.803333832
3.77	-3.659571569
3.78	-3.513299358
3.79	-3.364683307
3.8	-3.213890541
3.81	-3.061089027
3.82	-2.906447401
3.83	-2.750134793
3.84	-2.592320653
3.85	-2.433174584
3.86	-2.272866165
3.87	-2.111564787
3.88	-1.94943948
3.89	-1.786658754
3.9	-1.623390428
3.91	-1.459801473
3.92	-1.296057848
3.93	-1.132324346
3.94	-0.9687644348
3.95	-0.8055401075
3.96	-0.642811731
3.97	-0.480737899
3.98	-0.3194752877
3.99	-0.1591785145
4	-2.472519245e-15
4.01	0.1579101665
4.02	0.3144043587
4.03	0.469337541
4.04	0.6225673925
4.05	0.7739544281
4.06	0.9233621145
4.07	1.070656984
4.08	1.215708742
4.09	1.358390373
4.1	1.498578241
4.11	1.636152187
4.12	1.770995619
4.13	1.902995603
4.14	2.032042943
4.15	2.158032265
4.16	2.280862087
4.17	2.400434892
4.18	2.516657195
4.19	2.629439601
4.2	2.738696863
4.21	2.844347936
4.22	2.946316023
4.23	3.044528615
4.24	3.138917535
4.25	3.229418967
4.26	3.315973487
4.27	3.398526089
4.28	3.477026198
4.29	3.551427695
4.3	3.621688919
4.31	3.687772679
4.32	3.749646251
4.33	3.807281377
4.34	3.860654262
4.35	3.909745552
4.36	3.954540329
4.37	3.995028082
4.38	4.031202689
4.39	4.063062383
4.4	4.090609721
4.41	4.113851549
4.42	4.132798957
4.43	4.147467238
4.44	4.157875836
4.45	4.164048296
4.46	4.166012206
4.47	4.163799139
4.48	4.157444588
4.49	4.1469879
4.5	4.132472206
4.51	4.113944347
4.52	4.091454801
4.53	4.065057598
4.54	4.034810243
4.55	4.000773627
4.56	3.963011942
4.57	3.921592588
4.58	3.876586084
4.59	3.828065967
4.6	3.7761087
4.61	3.72079357
4.62	3.662202584
4.63	3.600420371
4.64	3.535534072
4.65	3.467633232
4.66	3.396809698
4.67	3.3231575
4.68	3.246772748
4.69	3.167753513
4.7	3.086199718
4.71	3.002213021
4.72	2.915896698
4.73	2.827355533
4.74	2.736695695
4.75	2.644024623
4.76	2.549450909
4.77	2.453084182
4.78	2.355034987
4.79	2.25541467
4.8	2.154335256
4.81	2.051909338
4.82	1.948249956
4.83	1.843470481
4.84	1.7376845
4.85	1.631005699
4.86	1.523547753
4.87	1.415424205
4.88	1.306748362
4.89	1.197633178
4.9	1.088191147
4.91	0.9785341907
4.92	0.8687735566
4.93	0.7590197078
4.94	0.6493822205
4.95	0.5399696819
4.96	0.4308895891
4.97	0.3222482506
4.98	0.2141506896
4.99	0.1067005491
5	2.071724018e-15
5.01	-0.1058503501
5.02	-0.2107515442
5.03	-0.3146063621
5.04	-0.4173194032
5.05	-0.5187971679
5.06	-0.6189481351
5.07	-0.7176828386
5.08	-0.8149139396
5.09	-0.9105562971
5.1	-1.004527035
5.11	-1.096745609
5.12	-1.187133865
5.13	-1.2756161
5.14	-1.362119119
5.15	-1.446572287
5.16	-1.528907579
5.17	-1.609059627
5.18	-1.686965767
5.19	-1.762566074
5.2	-1.835803407
5.21	-1.90662344
5.22	-1.974974692
5.23	-2.040808561
5.24	-2.104079346
5.25	-2.16474427
5.26	-2.222763501
5.27	-2.278100164
5.28	-2.330720361
5.29	-2.380593176
5.3	-2.427690683
5.31	-2.471987952
5.32	-2.513463047
5.33	-2.552097028
5.34	-2.587873942
5.35	-2.620780818
5.36	-2.650807655
5.37	-2.677947408
5.38	-2.702195972
5.39	-2.723552163
5.4	-2.742017696
5.41	-2.757597159
5.42	-2.770297987
5.43	-2.78013043
5.44	-2.787107522
5.45	-2.791245045
5.46	-2.792561494
5.47	-2.791078031
5.48	-2.786818448
5.49	-2.77980912
5.5	-2.770078959
5.51	-2.757659364
5.52	-2.74258417
5.53	-2.724889596
5.54	-2.704614188
5.55	-2.681798762
5.56	-2.656486347
5.57	-2.628722124
5.58	-2.598553362
5.59	-2.566029355
5.6	-2.531201358
5.61	-2.494122517
5.62	-2.454847805
5.63	-2.413433949
5.64	-2.369939362
5.65	-2.324424068
5.66	-2.276949633
5.67	-2.227579088
5.68	-2.176376858
5.69	-2.123408681
5.7	-2.068741537
5.71	-2.01244357
5.72	-1.954584009
5.73	-1.895233091
5.74	-1.834461984
5.75	-1.772342707
5.76	-1.708948051
5.77	-1.644351502
5.78	-1.578627161
5.79	-1.511849665
5.8	-1.444094108
5.81	-1.375435962
5.82	-1.305951
5.83	-1.235715218
5.84	-1.164804754
5.85	-1.093295815
5.86	-1.0212646
5.87	-0.9487872183
5.88	-0.8759396222
5.89	-0.8027975271
5.9	-0.7294363395
5.91	-0.6559310838
5.92	-0.5823563305
5.93	-0.5087861255
5.94	-0.43529392
5.95	-0.361952502
5.96	-0.2888339292
5.97	-0.2160094622
5.98	-0.1435495001
5.99	-0.07152351701
6	-1.666461767e-15
6.01	0.07095361154
6.02	0.1412709848
6.03	0.2108869511
6.04	0.2797375616
6.05	0.3477601414
6.06	0.4148933424
6.07	0.4810771934
6.08	0.5462531495
6.09	0.610364139
6.1	0.6733546086
6.11	0.7351705673
6.12	0.795759627
6.13	0.855071043
6.14	0.9130557507
6.15	0.9696664021
6.16	1.024857399
6.17	1.078584924
6.18	1.130806971
6.19	1.181483372
6.2	1.230575825
6.21	1.278047912
6.22	1.323865126
6.23	1.367994889
6.24	1.410406564
6.25	1.451071479
6.26	1.489962932
6.27	1.527056207
6.28	1.56232858
6.29	1.595759327
6.3	1.627329731
6.31	1.657023078
6.32	1.684824666
6.33	1.710721797
6.34	1.73470378
6.35	1.756761919
6.36	1.776889509
6.37	1.79508183
6.38	1.811336128
6.39	1.825651611
6.4	1.838029428
6.41	1.848472655
6.42	1.856986274
6.43	1.863577158
6.44	1.868254042
6.45	1.871027507
6.46	1.871909949
6.47	1.870915554
6.48	1.86806027
6.49	1.863361777
6.5	1.856839455
6.51	1.848514352
6.52	1.838409147
6.53	1.82654812
6.54	1.812957107
6.55	1.797663469
6.56	1.780696051
6.57	1.762085135
6.58	1.741862409
6.59	1.720060915
6.6	1.696715011
6.61	1.67186032
6.62	1.645533694
6.63	1.617773156
6.64	1.588617862
6.65	1.558108048
6.66	1.526284983
6.67	1.493190917
6.68	1.458869036
6.69	1.423363405
6.7	1.386718922
6.71	1.348981267
6.72	1.310196843
6.73	1.270412733
6.74	1.229676642
6.75	1.188036845
6.76	1.145542136
6.77	1.102241775
6.78	1.058185431
6.79	1.013423137
6.8	0.9680052288
6.81	0.9219822972
6.82	0.8754051345
6.83	0.8283246816
6.84	0.7807919762
6.85	0.7328581014
6.86	0.6845741335
6.87	0.6359910918
6.88	0.5871598879
6.89	0.5381312754
6.9	0.4889558007
6.91	0.4396837543
6.92	0.3903651223
6.93	0.341049539
6.94	0.2917862405
6.95	0.2426240178
6.96	0.1936111727
6.97	0.1447954726
6.98	0.0962241075
6.99	0.04794364722
7	1.30323985e-15
7.01	-0.04756162815
7.02	-0.09469677304
7.03	-0.1413617508
7.04	-0.1875136952
7.05	-0.233110594
7.06	-0.2781113244
7.07	-0.3224756864
7.08	-0.3661644363
7.09	-0.4091393177
7.1	-0.4513630923
7.11	-0.4927995685
7.12	-0.5334136298
7.13	-0.5731712609
7.14	-0.6120395729
7.15	-0.6499868273
7.16	-0.6869824587
7.17	-0.7229970956
7.18	-0.7580025805
7.19	-0.7919719883
7.2	-0.8248796434
7.21	-0.8567011351
7.22	-0.8874133325
7.23	-0.9169943967
7.24	-0.9454237931
7.25	-0.9726823006
7.26	-0.9987520213
7.27	-1.023616387
7.28	-1.047260166
7.29	-1.069669466
7.3	-1.09083174
7.31	-1.110735786
7.32	-1.129371747
7.33	-1.146731114
7.34	-1.162806718
7.35	-1.17759273
7.36	-1.191084658
7.37	-1.203279335
7.38	-1.214174917
7.39	-1.223770872
7.4	-1.232067971
7.41	-1.239068275
7.42	-1.244775125
7.43	-1.249193126
7.44	-1.252328136
7.45	-1.254187245
7.46	-1.254778763
7.47	-1.2541122
7.48	-1.252198246
7.49	-1.249048752
7.5	-1.244676709
7.51	-1.239096225
7.52	-1.232322504
7.53	-1.22437182
7.54	-1.215261491
7.55	-1.20500986
7.56	-1.193636259
7.57	-1.181160989
7.58	-1.16760529
7.59	-1.152991312
7.6	-1.137342084
7.61	-1.120681487
7.62	-1.103034221
7.63	-1.084425776
7.64	-1.064882398
7.65	-1.044431059
7.66	-1.02309942
7.67	-1.000915804
7.68	-0.9779091591
7.69	-0.9541090229
7.7	-0.9295454919
7.71	-0.9042491848
7.72	-0.8782512081
7.73	-0.8515831217
7.74	-0.8242769031
7.75	-0.7963649125
7.76	-0.7678798574
7.77	-0.7388547571
7.78	-0.7093229071
7.79	-0.6793178439
7.8	-0.6488733095
7.81	-0.6180232159
7.82	-0.58680161
7.83	-0.5552426387
7.84	-0.5233805135
7.85	-0.4912494762
7.86	-0.4588837647
7.87	-0.426317578
7.88	-0.3935850431
7.89	-0.3607201813
7.9	-0.3277568748
7.91	-0.2947288344
7.92	-0.2616695667
7.93	-0.2286123427
7.94	-0.1955901661
7.95	-0.1626357428
7.96	-0.1297814502
7.97	-0.09705930788
7.98	-0.06450094817
7.99	-0.03213758781
8	-9.983860526e-16
8.01	0.03188151277
8.02	0.06347714527
8.03	0.09475761528
8.04	0.1256941888
8.05	0.1562587041
8.06	0.1864235958
8.07	0.216161917
8.08	0.2454473618
8.09	0.2742542863
8.1	0.3025577288
8.11	0.3303334295
8.12	0.3575578489
8.13	0.384208186
8.14	0.4102623947
8.15	0.4356992
8.16	0.4604981133
8.17	0.4846394464
8.18	0.5081043247
8.19	0.5308746997
8.2	0.5529333605
8.21	0.5742639443
8.22	0.5948509459
8.23	0.6146797262
8.24	0.6337365205
8.25	0.6520084445
8.26	0.6694835009
8.27	0.6861505836
8.28	0.7019994824
8.29	0.7170208856
8.3	0.7312063821
8.31	0.744548463
8.32	0.7570405217
8.33	0.7686768531
8.34	0.7794526526
8.35	0.7893640132
8.36	0.7984079226
8.37	0.8065822591
8.38	0.8138857862
8.39	0.8203181474
8.4	0.8258798591
8.41	0.8305723032
8.42	0.834397719
8.43	0.8373591938
8.44	0.8394606535
8.45	0.8407068517
8.46	0.8411033584
8.47	0.8406565479
8.48	0.8393735861
8.49	0.8372624171
8.5	0.834331749
8.51	0.8305910389
8.52	0.8260504778
8.53	0.8207209745
8.54	0.8146141388
8.55	0.8077422645
8.56	0.8001183118
8.57	0.7917558885
8.58	0.782669232
8.59	0.7728731893
8.6	0.7623831981
8.61	0.7512152659
8.62	0.73938595
8.63	0.7269123363
8.64	0.7138120184
8.65	0.7001030753
8.66	0.6858040503
8.67	0.670933928
8.68	0.6555121125
8.69	0.6395584042
8.7	0.623092977
8.71	0.6061363552
8.72	0.5887093902
8.73	0.5708332373
8.74	0.5525293316
8.75	0.5338193648
8.76	0.5147252614
8.77	0.4952691548
8.78	0.4754733637
8.79	0.4553603684
8.8	0.4349527867
8.81	0.4142733505
8.82	0.3933448823
8.83	0.3721902711
8.84	0.3508324499
8.85	0.3292943715
8.86	0.3075989863
8.87	0.2857692185
8.88	0.2638279442
8.89	0.2417979685
8.9	0.2197020034
8.91	0.1975626458
8.92	0.175402356
8.93	0.1532434361
8.94	0.1311080092
8.95	0.1090179986
8.96	0.08699510768
8.97	0.06506079973
8.98	0.04323627855
8.99	0.02154246934
9	7.528929578e-16
9.01	-0.02137081711
9.02	-0.04255000294
9.03	-0.06351792904
9.04	-0.0842553344
9.05	-0.1047433417
9.06	-0.1249634733
9.07	-0.1448976661
9.08	-0.1645282869
9.09	-0.1838381458
9.1	-0.2028105107
9.11	-0.2214291196
9.12	-0.2396781937
9.13	-0.2575424489
9.14	-0.2750071073
9.15	-0.2920579078
9.16	-0.3086811165
9.17	-0.324863536
9.18	-0.3405925143
9.19	-0.3558559531
9.2	-0.3706423157
9.21	-0.3849406336
9.22	-0.3987405134
9.23	-0.4120321424
9.24	-0.4248062936
9.25	-0.4370543306
9.26	-0.4487682111
9.27	-0.4599404908
9.28	-0.4705643254
9.29	-0.480633473
9.3	-0.4901422957
9.31	-0.49908576
9.32	-0.5074594374
9.33	-0.5152595036
9.34	-0.522482738
9.35	-0.5291265217
9.36	-0.5351888354
9.37	-0.540668257
9.38	-0.5455639577
9.39	-0.5498756983
9.4	-0.5536038252
9.41	-0.5567492645
9.42	-0.5593135174
9.43	-0.5612986533
9.44	-0.5627073039
9.45	-0.5635426555
9.46	-0.5638084419
9.47	-0.5635089359
9.48	-0.5626489409
9.49	-0.561233782
9.5	-0.5592692964
9.51	-0.5567618234
9.52	-0.5537181943
9.53	-0.5501457214
9.54	-0.546052187
9.55	-0.541445832
9.56	-0.5363353436
9.57	-0.5307298436
9.58	-0.5246388756
9.59	-0.5180723919
9.6	-0.5110407404
9.61	-0.5035546516
9.62	-0.495625224
9.63	-0.4872639107
9.64	-0.478482505
9.65	-0.4692931257
9.66	-0.4597082025
9.67	-0.4497404615
9.68	-0.4394029094
9.69	-0.4287088189
9.7	-0.417671713
9.71	-0.4063053495
9.72	-0.3946237056
9.73	-0.3826409619
9.74	-0.370371487
9.75	-0.3578298212
9.76	-0.3450306609
9.77	-0.3319888426
9.78	-0.3187193271
9.79	-0.3052371831
9.8	-0.291557572
9.81	-0.2776957314
9.82	-0.2636669596
9.83	-0.2494865997
9.84	-0.2351700239
9.85	-0.2207326183
9.86	-0.2061897666
9.87	-0.1915568357
9.88	-0.1768491597
9.89	-0.1620820254
9.9	-0.147270657
9.91	-0.1324302019
9.92	-0.1175757154
9.93	-0.1027221471
9.94	-0.08788432674
9.95	-0.07307694984
9.96	-0.05831456459
9.97	-0.04361155827
9.98	-0.02898214423
9.99	-0.01444034904
10	-5.607547135e-16
10.01	0.01432528711
10.02	0.02852211993
10.03	0.04257734112
10.04	0.05647803963
10.05	0.07021156165
10.06	0.08376552117
10.07	0.09712781024
10.08	0.1102866088
10.09	0.1232303944
10.1	0.1359479509
10.11	0.1484283777
10.12	0.1606610979
10.13	0.1726358662
10.14	0.1843427768
10.15	0.1957722702
10.16	0.2069151402
10.17	0.2177625404
10.18	0.2283059899
10.19	0.2385373789
10.2	0.2484489741
10.21	0.2580334232
10.22	0.2672837593
10.23	0.2761934047
10.24	0.2847561743
10.25	0.292966279
10.26	0.3008183279
10.27	0.308307331
10.28	0.3154287002
10.29	0.3221782518
10.3	0.3285522062
10.31	0.3345471896
10.32	0.3401602334
10.33	0.3453887742
10.34	0.350230653
10.35	0.3546841144
10.36	0.3587478048
10.37	0.3624207709
10.38	0.3657024572
10.39	0.3685927034
10.4	0.3710917416
10.41	0.3732001926
10.42	0.3749190627
10.43	0.3762497391
10.44	0.3771939859
10.45	0.3777539388
10.46	0.3779321007
10.47	0.3777313358
10.48	0.377154864
10.49	0.3762062546
10.5	0.3748894205
10.51	0.3732086111
10.52	0.3711684055
10.53	0.3687737053
10.54	0.3660297271
10.55	0.362941995
10.56	0.3595163322
10.57	0.3557588532
10.58	0.3516759553
10.59	0.3472743096
10.6	0.3425608527
10.61	0.3375427772
10.62	0.332227523
10.63	0.3266227671
10.64	0.3207364148
10.65	0.3145765896
10.66	0.3081516235
