temps	angle
0	0
0.01	0.548109309
0.02	1.092800058
0.03	1.633953816
0.04	2.171453766
0.05	2.705184719
0.06	3.235033136
0.07	3.760887147
0.08	4.282636571
0.09	4.800172932
0.1	5.313389476
0.11	5.822181191
0.12	6.32644482
0.13	6.826078879
0.14	7.32098367
0.15	7.8110613
0.16	8.296215689
0.17	8.776352589
0.18	9.251379595
0.19	9.721206158
0.2	10.1857436
0.21	10.6449051
0.22	11.09860577
0.23	11.54676259
0.24	11.98929444
0.25	12.42612216
0.26	12.85716848
0.27	13.28235809
0.28	13.70161761
0.29	14.11487562
0.3	14.52206264
0.31	14.92311119
0.32	15.31795571
0.33	15.70653266
0.34	16.08878045
0.35	16.46463948
0.36	16.83405213
0.37	17.19696279
0.38	17.5533178
0.39	17.90306554
0.4	18.24615634
0.41	18.58254256
0.42	18.91217854
0.43	19.2350206
0.44	19.55102707
0.45	19.86015828
0.46	20.16237653
0.47	20.45764611
0.48	20.74593332
0.49	21.02720641
0.5	21.30143564
0.51	21.5685932
0.52	21.8286533
0.53	22.08159208
0.54	22.32738766
0.55	22.56602008
0.56	22.79747136
0.57	23.02172544
0.58	23.23876819
0.59	23.44858743
0.6	23.65117286
0.61	23.8465161
0.62	24.03461066
0.63	24.21545196
0.64	24.38903727
0.65	24.55536573
0.66	24.71443836
0.67	24.86625799
0.68	25.01082931
0.69	25.14815881
0.7	25.2782548
0.71	25.40112739
0.72	25.51678844
0.73	25.62525161
0.74	25.72653231
0.75	25.82064768
0.76	25.90761658
0.77	25.98745959
0.78	26.06019899
0.79	26.1258587
0.8	26.18446436
0.81	26.23604321
0.82	26.28062414
0.83	26.31823763
0.84	26.34891579
0.85	26.37269227
0.86	26.3896023
0.87	26.39968265
0.88	26.40297159
0.89	26.39950892
0.9	26.38933591
0.91	26.37249529
0.92	26.34903125
0.93	26.31898938
0.94	26.28241669
0.95	26.23936159
0.96	26.18987382
0.97	26.13400448
0.98	26.07180599
0.99	26.00333207
1	25.92863772
1.01	25.8477792
1.02	25.760814
1.03	25.66780081
1.04	25.56879955
1.05	25.46387126
1.06	25.35307815
1.07	25.23648357
1.08	25.11415194
1.09	24.98614877
1.1	24.85254063
1.11	24.7133951
1.12	24.56878081
1.13	24.41876732
1.14	24.26342519
1.15	24.10282591
1.16	23.93704186
1.17	23.76614633
1.18	23.59021348
1.19	23.40931828
1.2	23.22353657
1.21	23.03294492
1.22	22.83762071
1.23	22.63764205
1.24	22.43308778
1.25	22.22403742
1.26	22.01057116
1.27	21.79276985
1.28	21.57071496
1.29	21.34448854
1.3	21.11417323
1.31	20.87985223
1.32	20.64160922
1.33	20.39952842
1.34	20.15369451
1.35	19.90419262
1.36	19.6511083
1.37	19.39452753
1.38	19.13453662
1.39	18.87122228
1.4	18.60467152
1.41	18.33497166
1.42	18.0622103
1.43	17.78647531
1.44	17.50785477
1.45	17.226437
1.46	16.94231046
1.47	16.65556382
1.48	16.36628586
1.49	16.07456547
1.5	15.78049165
1.51	15.48415345
1.52	15.18563998
1.53	14.88504036
1.54	14.58244371
1.55	14.27793914
1.56	13.97161569
1.57	13.66356235
1.58	13.35386801
1.59	13.04262145
1.6	12.72991132
1.61	12.4158261
1.62	12.1004541
1.63	11.78388342
1.64	11.46620195
1.65	11.14749735
1.66	10.82785697
1.67	10.50736793
1.68	10.18611702
1.69	9.864190691
1.7	9.541675077
1.71	9.218655932
1.72	8.895218628
1.73	8.571448133
1.74	8.247428991
1.75	7.923245304
1.76	7.598980715
1.77	7.274718383
1.78	6.950540972
1.79	6.62653063
1.8	6.30276897
1.81	5.979337053
1.82	5.656315372
1.83	5.333783833
1.84	5.01182174
1.85	4.690507776
1.86	4.369919991
1.87	4.050135778
1.88	3.731231868
1.89	3.413284304
1.9	3.096368431
1.91	2.780558883
1.92	2.465929563
1.93	2.152553631
1.94	1.840503491
1.95	1.529850775
1.96	1.22066633
1.97	0.9130202052
1.98	0.6069816388
1.99	0.3026190446
2	2.352351447e-15
2.01	-0.3008087666
2.02	-0.5997413875
2.03	-0.8967328673
2.04	-1.191719094
2.05	-1.484636852
2.06	-1.775423828
2.07	-2.064018628
2.08	-2.350360783
2.09	-2.63439076
2.1	-2.916049972
2.11	-3.195280785
2.12	-3.472026533
2.13	-3.746231518
2.14	-4.017841026
2.15	-4.286801332
2.16	-4.553059705
2.17	-4.816564423
2.18	-5.077264772
2.19	-5.335111056
2.2	-5.590054607
2.21	-5.842047786
2.22	-6.091043992
2.23	-6.336997666
2.24	-6.579864298
2.25	-6.819600433
2.26	-7.05616367
2.27	-7.289512675
2.28	-7.519607178
2.29	-7.74640798
2.3	-7.969876959
2.31	-8.189977066
2.32	-8.406672337
2.33	-8.619927888
2.34	-8.829709922
2.35	-9.03598573
2.36	-9.238723693
2.37	-9.437893282
2.38	-9.633465062
2.39	-9.825410689
2.4	-10.01370292
2.41	-10.19831559
2.42	-10.37922364
2.43	-10.55640312
2.44	-10.72983115
2.45	-10.89948596
2.46	-11.06534685
2.47	-11.22739423
2.48	-11.38560961
2.49	-11.53997555
2.5	-11.69047574
2.51	-11.83709492
2.52	-11.97981893
2.53	-12.11863468
2.54	-12.25353015
2.55	-12.3844944
2.56	-12.51151755
2.57	-12.6345908
2.58	-12.75370639
2.59	-12.86885763
2.6	-12.98003887
2.61	-13.08724551
2.62	-13.190474
2.63	-13.28972181
2.64	-13.38498744
2.65	-13.47627044
2.66	-13.56357135
2.67	-13.64689173
2.68	-13.72623415
2.69	-13.80160218
2.7	-13.87300038
2.71	-13.94043428
2.72	-14.00391041
2.73	-14.06343626
2.74	-14.11902029
2.75	-14.1706719
2.76	-14.21840144
2.77	-14.26222022
2.78	-14.30214044
2.79	-14.33817526
2.8	-14.37033873
2.81	-14.3986458
2.82	-14.42311233
2.83	-14.44375505
2.84	-14.46059158
2.85	-14.47364039
2.86	-14.48292082
2.87	-14.48845303
2.88	-14.49025804
2.89	-14.48835768
2.9	-14.48277462
2.91	-14.47353229
2.92	-14.46065495
2.93	-14.44416762
2.94	-14.42409611
2.95	-14.40046696
2.96	-14.3733075
2.97	-14.34264575
2.98	-14.3085105
2.99	-14.27093122
3	-14.22993809
3.01	-14.18556199
3.02	-14.13783448
3.03	-14.08678776
3.04	-14.03245471
3.05	-13.97486884
3.06	-13.9140643
3.07	-13.85007584
3.08	-13.78293881
3.09	-13.71268918
3.1	-13.63936348
3.11	-13.5629988
3.12	-13.48363279
3.13	-13.40130364
3.14	-13.31605008
3.15	-13.22791132
3.16	-13.1369271
3.17	-13.04313765
3.18	-12.94658365
3.19	-12.84730627
3.2	-12.7453471
3.21	-12.64074818
3.22	-12.53355199
3.23	-12.42380137
3.24	-12.31153961
3.25	-12.19681033
3.26	-12.07965757
3.27	-11.96012568
3.28	-11.83825937
3.29	-11.71410368
3.3	-11.58770396
3.31	-11.45910586
3.32	-11.32835533
3.33	-11.19549857
3.34	-11.06058206
3.35	-10.92365252
3.36	-10.7847569
3.37	-10.64394238
3.38	-10.50125635
3.39	-10.35674637
3.4	-10.21046021
3.41	-10.06244579
3.42	-9.912751185
3.43	-9.761424614
3.44	-9.608514422
3.45	-9.454069072
3.46	-9.298137125
3.47	-9.140767231
3.48	-8.982008118
3.49	-8.821908574
3.5	-8.660517439
3.51	-8.497883587
3.52	-8.33405592
3.53	-8.169083351
3.54	-8.00301479
3.55	-7.835899137
3.56	-7.667785264
3.57	-7.498722008
3.58	-7.328758152
3.59	-7.15794242
3.6	-6.98632346
3.61	-6.813949836
3.62	-6.64087001
3.63	-6.467132339
3.64	-6.292785054
3.65	-6.117876256
3.66	-5.942453901
3.67	-5.766565786
3.68	-5.590259545
3.69	-5.413582632
3.7	-5.23658231
3.71	-5.059305645
3.72	-4.881799489
3.73	-4.704110474
3.74	-4.526284998
3.75	-4.348369219
3.76	-4.170409039
3.77	-3.992450098
3.78	-3.814537763
3.79	-3.636717117
3.8	-3.45903295
3.81	-3.281529751
3.82	-3.104251693
3.83	-2.927242632
3.84	-2.750546089
3.85	-2.574205247
3.86	-2.39826294
3.87	-2.222761643
3.88	-2.047743466
3.89	-1.873250143
3.9	-1.699323025
3.91	-1.52600307
3.92	-1.353330838
3.93	-1.18134648
3.94	-1.010089732
3.95	-0.8395999068
3.96	-0.6699158856
3.97	-0.5010761126
3.98	-0.3331185863
3.99	-0.166080853
4	-2.581995693e-15
4.01	0.1650873514
4.02	0.3291450521
4.03	0.492137432
4.04	0.6540293059
4.05	0.8147859795
4.06	0.9743732558
4.07	1.13275744
4.08	1.289905347
4.09	1.445784303
4.1	1.600362156
4.11	1.753607276
4.12	1.905488562
4.13	2.055975448
4.14	2.205037907
4.15	2.352646452
4.16	2.498772146
4.17	2.643386601
4.18	2.786461986
4.19	2.927971028
4.2	3.067887015
4.21	3.206183804
4.22	3.342835819
4.23	3.477818057
4.24	3.611106091
4.25	3.742676071
4.26	3.872504728
4.27	4.000569377
4.28	4.126847918
4.29	4.251318838
4.3	4.373961213
4.31	4.494754713
4.32	4.613679599
4.33	4.730716727
4.34	4.845847548
4.35	4.959054112
4.36	5.070319065
4.37	5.179625653
4.38	5.286957722
4.39	5.392299715
4.4	5.49563668
4.41	5.596954263
4.42	5.69623871
4.43	5.79347687
4.44	5.888656191
4.45	5.981764721
4.46	6.072791108
4.47	6.161724598
4.48	6.248555037
4.49	6.333272864
4.5	6.415869119
4.51	6.496335432
4.52	6.574664029
4.53	6.650847726
4.54	6.724879929
4.55	6.796754633
4.56	6.866466419
4.57	6.93401045
4.58	6.999382472
4.59	7.062578812
4.6	7.12359637
4.61	7.182432622
4.62	7.239085617
4.63	7.293553969
4.64	7.345836859
4.65	7.39593403
4.66	7.443845785
4.67	7.48957298
4.68	7.533117024
4.69	7.574479875
4.7	7.613664034
4.71	7.650672545
4.72	7.685508984
4.73	7.718177465
4.74	7.748682626
4.75	7.777029629
4.76	7.803224159
4.77	7.827272412
4.78	7.849181096
4.79	7.868957423
4.8	7.886609108
4.81	7.902144358
4.82	7.915571875
4.83	7.926900842
4.84	7.936140925
4.85	7.943302264
4.86	7.948395468
4.87	7.95143161
4.88	7.952422221
4.89	7.951379285
4.9	7.948315232
4.91	7.943242935
4.92	7.936175701
4.93	7.927127264
4.94	7.916111783
4.95	7.903143834
4.96	7.888238404
4.97	7.871410882
4.98	7.852677057
4.99	7.83205311
5	7.809555605
5.01	7.785201487
5.02	7.759008071
5.03	7.730993038
5.04	7.701174429
5.05	7.669570635
5.06	7.636200394
5.07	7.60108278
5.08	7.5642372
5.09	7.525683387
5.1	7.485441388
5.11	7.443531562
5.12	7.399974573
5.13	7.354791379
5.14	7.308003229
5.15	7.259631653
5.16	7.209698457
5.17	7.158225714
5.18	7.105235756
5.19	7.050751172
5.2	6.994794794
5.21	6.937389693
5.22	6.878559172
5.23	6.818326758
5.24	6.756716195
5.25	6.693751435
5.26	6.629456634
5.27	6.56385614
5.28	6.496974492
5.29	6.428836404
5.3	6.359466768
5.31	6.288890636
5.32	6.217133221
5.33	6.144219885
5.34	6.070176134
5.35	5.995027609
5.36	5.918800079
5.37	5.841519434
5.38	5.763211678
5.39	5.683902922
5.4	5.603619375
5.41	5.522387338
5.42	5.440233196
5.43	5.357183413
5.44	5.27326452
5.45	5.188503115
5.46	5.102925848
5.47	5.016559419
5.48	4.929430571
5.49	4.841566078
5.5	4.752992745
5.51	4.663737395
5.52	4.573826865
5.53	4.483287999
5.54	4.392147641
5.55	4.300432626
5.56	4.208169776
5.57	4.115385894
5.58	4.022107752
5.59	3.92836209
5.6	3.834175608
5.61	3.739574958
5.62	3.644586735
5.63	3.54923748
5.64	3.453553661
5.65	3.357561678
5.66	3.261287848
5.67	3.164758404
5.68	3.067999487
5.69	2.971037141
5.7	2.873897305
5.71	2.776605808
5.72	2.679188365
5.73	2.581670565
5.74	2.484077875
5.75	2.386435625
5.76	2.288769008
5.77	2.19110307
5.78	2.09346271
5.79	1.995872671
5.8	1.898357533
5.81	1.800941711
5.82	1.703649451
5.83	1.606504818
5.84	1.509531699
5.85	1.412753793
5.86	1.316194608
5.87	1.219877454
5.88	1.123825442
5.89	1.028061476
5.9	0.9326082495
5.91	0.8374882416
5.92	0.7427237115
5.93	0.6483366946
5.94	0.5543489986
5.95	0.4607821985
5.96	0.3676576332
5.97	0.2749964012
5.98	0.1828193563
5.99	0.09114710466
6	2.125543921e-15
6.01	-0.09060185941
6.02	-0.1806386346
6.03	-0.2700907493
6.04	-0.3589388934
6.05	-0.4471640265
6.06	-0.5347473807
6.07	-0.6216704641
6.08	-0.7079150638
6.09	-0.7934632489
6.1	-0.8782973731
6.11	-0.9624000779
6.12	-1.045754295
6.13	-1.12834325
6.14	-1.210150461
6.15	-1.291159749
6.16	-1.37135523
6.17	-1.450721326
6.18	-1.529242762
6.19	-1.60690457
6.2	-1.683692092
6.21	-1.759590979
6.22	-1.834587195
6.23	-1.908667018
6.24	-1.981817042
6.25	-2.054024178
6.26	-2.125275656
6.27	-2.195559025
6.28	-2.264862158
6.29	-2.333173247
6.3	-2.40048081
6.31	-2.466773688
6.32	-2.532041049
6.33	-2.596272387
6.34	-2.659457521
6.35	-2.721586601
6.36	-2.782650102
6.37	-2.842638829
6.38	-2.901543917
6.39	-2.959356829
6.4	-3.016069358
6.41	-3.071673626
6.42	-3.126162086
6.43	-3.17952752
6.44	-3.231763038
6.45	-3.282862083
6.46	-3.332818424
6.47	-3.381626158
6.48	-3.429279713
6.49	-3.475773843
6.5	-3.521103628
6.51	-3.565264477
6.52	-3.608252123
6.53	-3.650062622
6.54	-3.690692356
6.55	-3.73013803
6.56	-3.768396669
6.57	-3.80546562
6.58	-3.841342546
6.59	-3.876025433
6.6	-3.909512578
6.61	-3.941802599
6.62	-3.972894421
6.63	-4.002787286
6.64	-4.031480745
6.65	-4.058974656
6.66	-4.085269184
6.67	-4.110364801
6.68	-4.134262279
6.69	-4.156962693
6.7	-4.178467415
6.71	-4.198778116
6.72	-4.21789676
6.73	-4.235825602
6.74	-4.252567189
6.75	-4.268124355
6.76	-4.282500218
6.77	-4.295698179
6.78	-4.307721919
6.79	-4.318575398
6.8	-4.328262848
6.81	-4.336788774
6.82	-4.344157951
6.83	-4.35037542
6.84	-4.355446486
6.85	-4.359376712
6.86	-4.362171921
6.87	-4.363838191
6.88	-4.36438185
6.89	-4.363809474
6.9	-4.362127887
6.91	-4.359344151
6.92	-4.355465571
6.93	-4.350499683
6.94	-4.344454259
6.95	-4.337337298
6.96	-4.329157024
6.97	-4.319921885
6.98	-4.309640544
6.99	-4.298321881
7	-4.285974989
7.01	-4.272609165
7.02	-4.258233914
7.03	-4.242858938
7.04	-4.226494138
7.05	-4.209149608
7.06	-4.190835632
7.07	-4.171562676
7.08	-4.151341394
7.09	-4.130182612
7.1	-4.108097335
7.11	-4.085096735
7.12	-4.061192152
7.13	-4.03639509
7.14	-4.010717209
7.15	-3.984170325
7.16	-3.956766406
7.17	-3.928517565
7.18	-3.89943606
7.19	-3.869534287
7.2	-3.838824775
7.21	-3.807320188
7.22	-3.775033313
7.23	-3.741977063
7.24	-3.708164469
7.25	-3.673608677
7.26	-3.638322941
7.27	-3.602320627
7.28	-3.5656152
7.29	-3.528220225
7.3	-3.490149361
7.31	-3.451416359
7.32	-3.412035055
7.33	-3.372019368
7.34	-3.331383296
7.35	-3.290140911
7.36	-3.248306355
7.37	-3.205893838
7.38	-3.16291763
7.39	-3.119392062
7.4	-3.075331517
7.41	-3.03075043
7.42	-2.985663281
7.43	-2.940084594
7.44	-2.894028929
7.45	-2.847510883
7.46	-2.800545084
7.47	-2.753146183
7.48	-2.705328857
7.49	-2.657107801
7.5	-2.608497725
7.51	-2.55951335
7.52	-2.510169405
7.53	-2.460480622
7.54	-2.410461733
7.55	-2.360127465
7.56	-2.30949254
7.57	-2.258571665
7.58	-2.207379536
7.59	-2.155930826
7.6	-2.104240189
7.61	-2.052322251
7.62	-2.000191609
7.63	-1.947862828
7.64	-1.895350435
7.65	-1.842668918
7.66	-1.789832719
7.67	-1.736856237
7.68	-1.683753818
7.69	-1.630539754
7.7	-1.577228282
7.71	-1.523833577
7.72	-1.47036975
7.73	-1.416850847
7.74	-1.363290843
7.75	-1.30970364
7.76	-1.256103064
7.77	-1.202502861
7.78	-1.148916695
7.79	-1.095358146
7.8	-1.041840703
7.81	-0.9883777671
7.82	-0.9349826424
7.83	-0.8816685376
7.84	-0.8284485615
7.85	-0.7753357206
7.86	-0.7223429161
7.87	-0.6694829413
7.88	-0.6167684795
7.89	-0.5642121006
7.9	-0.5118262592
7.91	-0.4596232921
7.92	-0.4076154152
7.93	-0.3558147221
7.94	-0.3042331809
7.95	-0.2528826323
7.96	-0.2017747872
7.97	-0.1509212248
7.98	-0.1003333901
7.99	-0.05002259164
8	-1.555364316e-15
8.01	0.04972335469
8.02	0.09913658458
8.03	0.148228946
8.04	0.1969898414
8.05	0.245408821
8.06	0.2934755849
8.07	0.3411799845
8.08	0.3885120244
8.09	0.4354618638
8.1	0.4820198183
8.11	0.5281763614
8.12	0.5739221257
8.13	0.6192479049
8.14	0.6641446546
8.15	0.7086034941
8.16	0.7526157073
8.17	0.7961727442
8.18	0.839266222
8.19	0.8818879262
8.2	0.9240298117
8.21	0.965684004
8.22	1.0068428
8.23	1.047498669
8.24	1.087644253
8.25	1.12727237
8.26	1.16637601
8.27	1.204948341
8.28	1.242982706
8.29	1.280472627
8.3	1.317411801
8.31	1.353794104
8.32	1.389613591
8.33	1.424864496
8.34	1.459541233
8.35	1.493638395
8.36	1.527150755
8.37	1.560073267
8.38	1.592401064
8.39	1.624129463
8.4	1.655253959
8.41	1.685770228
8.42	1.715674129
8.43	1.7449617
8.44	1.773629161
8.45	1.801672911
8.46	1.829089532
8.47	1.855875784
8.48	1.88202861
8.49	1.907545129
8.5	1.932422643
8.51	1.956658631
8.52	1.980250751
8.53	2.003196839
8.54	2.02549491
8.55	2.047143155
8.56	2.068139942
8.57	2.088483813
8.58	2.108173488
8.59	2.127207859
8.6	2.145585995
8.61	2.163307133
8.62	2.180370687
8.63	2.19677624
8.64	2.212523543
8.65	2.227612522
8.66	2.242043265
8.67	2.255816031
8.68	2.268931245
8.69	2.281389497
8.7	2.293191539
8.71	2.304338288
8.72	2.314830822
8.73	2.324670379
8.74	2.333858357
8.75	2.34239631
8.76	2.350285951
8.77	2.357529146
8.78	2.364127914
8.79	2.37008443
8.8	2.375401015
8.81	2.380080142
8.82	2.384124433
8.83	2.387536652
8.84	2.390319712
8.85	2.392476665
8.86	2.394010709
8.87	2.394925177
8.88	2.395223544
8.89	2.394909417
8.9	2.393986542
8.91	2.392458796
8.92	2.390330186
8.93	2.387604849
8.94	2.38428705
8.95	2.380381179
8.96	2.375891749
8.97	2.370823397
8.98	2.365180878
8.99	2.358969064
9	2.352192946
9.01	2.344857626
9.02	2.336968321
9.03	2.328530355
9.04	2.319549163
9.05	2.310030283
9.06	2.29997936
9.07	2.289402138
9.08	2.278304462
9.09	2.266692277
9.1	2.25457162
9.11	2.241948623
9.12	2.22882951
9.13	2.215220593
9.14	2.201128273
9.15	2.186559035
9.16	2.171519445
9.17	2.156016153
9.18	2.140055884
9.19	2.123645443
9.2	2.106791705
9.21	2.089501621
9.22	2.071782209
9.23	2.053640554
9.24	2.035083809
9.25	2.016119188
9.26	1.996753966
9.27	1.976995477
9.28	1.956851112
9.29	1.936328314
9.3	1.915434581
9.31	1.894177459
9.32	1.872564541
9.33	1.850603466
9.34	1.828301917
9.35	1.805667616
9.36	1.782708325
9.37	1.759431842
9.38	1.735846
9.39	1.711958661
9.4	1.687777722
9.41	1.663311102
9.42	1.63856675
9.43	1.613552636
9.44	1.588276751
9.45	1.562747107
9.46	1.536971729
9.47	1.510958661
9.48	1.484715956
9.49	1.458251679
9.5	1.431573904
9.51	1.404690709
9.52	1.377610178
9.53	1.350340396
9.54	1.322889447
9.55	1.295265416
9.56	1.267476379
9.57	1.239530411
9.58	1.211435575
9.59	1.183199924
9.6	1.154831501
9.61	1.126338332
9.62	1.09772843
9.63	1.069009786
9.64	1.040190373
9.65	1.011278143
9.66	0.9822810231
9.67	0.9532069133
9.68	0.9240636877
9.69	0.8948591903
9.7	0.8656012339
9.71	0.8362975983
9.72	0.806956028
9.73	0.7775842314
9.74	0.748189878
9.75	0.7187805974
9.76	0.6893639775
9.77	0.6599475624
9.78	0.6305388513
9.79	0.6011452962
9.8	0.571774301
9.81	0.5424332195
9.82	0.5131293537
9.83	0.4838699526
9.84	0.4546622105
9.85	0.4255132654
9.86	0.3964301976
9.87	0.3674200284
9.88	0.3384897183
9.89	0.309646166
9.9	0.2808962067
9.91	0.2522466109
9.92	0.2237040829
9.93	0.1952752598
9.94	0.1669667098
9.95	0.1387849311
9.96	0.1107363511
9.97	0.08282732432
9.98	0.05506413196
9.99	0.02745298036
10	1.067002544e-15
10.01	-0.02728875564
10.02	-0.05440731118
10.03	-0.08134977037
10.04	-0.1081103171
10.05	-0.1346832166
10.06	-0.1610628159
10.07	-0.1872435455
10.08	-0.2132199198
10.09	-0.2389865379
10.1	-0.2645380851
10.11	-0.289869333
10.12	-0.3149751408
10.13	-0.3398504558
10.14	-0.3644903145
10.15	-0.388889843
10.16	-0.4130442577
10.17	-0.4369488664
10.18	-0.4605990684
10.19	-0.4839903556
10.2	-0.5071183128
10.21	-0.5299786182
10.22	-0.5525670443
10.23	-0.5748794583
10.24	-0.5969118221
10.25	-0.6186601935
10.26	-0.6401207262
10.27	-0.6612896703
10.28	-0.6821633727
10.29	-0.7027382773
10.3	-0.7230109257
10.31	-0.7429779569
10.32	-0.7626361084
10.33	-0.7819822155
10.34	-0.8010132122
10.35	-0.8197261314
10.36	-0.8381181044
10.37	-0.8561863619
10.38	-0.8739282335
10.39	-0.8913411479
10.4	-0.9084226333
10.41	-0.925170317
10.42	-0.9415819258
10.43	-0.9576552855
10.44	-0.9733883215
10.45	-0.988779058
10.46	-1.003825619
10.47	-1.018526226
10.48	-1.032879201
10.49	-1.046882963
10.5	-1.060536032
10.51	-1.073837024
10.52	-1.086784654
10.53	-1.099377735
10.54	-1.111615176
10.55	-1.123495984
10.56	-1.135019265
10.57	-1.146184218
10.58	-1.156990141
10.59	-1.167436426
10.6	-1.17752256
10.61	-1.187248127
10.62	-1.196612804
10.63	-1.205616362
10.64	-1.214258666
10.65	-1.222539673
10.66	-1.230459432
10.67	-1.238018087
10.68	-1.245215869
10.69	-1.252053102
10.7	-1.2585302
10.71	-1.264647666
10.72	-1.270406091
10.73	-1.275806154
10.74	-1.280848623
10.75	-1.285534351
10.76	-1.289864278
10.77	-1.293839428
10.78	-1.297460909
10.79	-1.300729913
10.8	-1.303647717
10.81	-1.306215677
10.82	-1.308435231
