temps	angle
0	0
0.01	0.657061879
0.02	1.308645243
0.03	1.954552781
0.04	2.594590854
0.05	3.228569535
0.06	3.856302653
0.07	4.477607829
0.08	5.092306515
0.09	5.700224028
0.1	6.301189585
0.11	6.895036336
0.12	7.48160139
0.13	8.06072585
0.14	8.632254836
0.15	9.19603751
0.16	9.751927101
0.17	10.29978093
0.18	10.83946041
0.19	11.37083111
0.2	11.89376272
0.21	12.4081291
0.22	12.91380828
0.23	13.41068246
0.24	13.89863807
0.25	14.37756571
0.26	14.84736019
0.27	15.30792057
0.28	15.7591501
0.29	16.20095625
0.3	16.63325073
0.31	17.05594945
0.32	17.46897256
0.33	17.87224442
0.34	18.26569358
0.35	18.64925281
0.36	19.02285908
0.37	19.38645351
0.38	19.73998143
0.39	20.08339231
0.4	20.41663976
0.41	20.73968153
0.42	21.05247946
0.43	21.35499952
0.44	21.64721171
0.45	21.92909011
0.46	22.20061281
0.47	22.46176193
0.48	22.71252353
0.49	22.95288765
0.5	23.18284826
0.51	23.4024032
0.52	23.61155419
0.53	23.81030679
0.54	23.99867035
0.55	24.17665799
0.56	24.34428657
0.57	24.50157663
0.58	24.64855239
0.59	24.78524168
0.6	24.91167591
0.61	25.02789004
0.62	25.13392253
0.63	25.22981528
0.64	25.31561365
0.65	25.39136631
0.66	25.45712532
0.67	25.51294597
0.68	25.55888683
0.69	25.59500961
0.7	25.62137919
0.71	25.63806354
0.72	25.64513365
0.73	25.64266353
0.74	25.63073009
0.75	25.60941317
0.76	25.5787954
0.77	25.53896223
0.78	25.49000181
0.79	25.43200497
0.8	25.36506517
0.81	25.28927843
0.82	25.20474325
0.83	25.11156061
0.84	25.00983388
0.85	24.89966875
0.86	24.7811732
0.87	24.65445744
0.88	24.51963382
0.89	24.3768168
0.9	24.22612289
0.91	24.0676706
0.92	23.90158032
0.93	23.72797435
0.94	23.54697678
0.95	23.35871342
0.96	23.16331181
0.97	22.96090108
0.98	22.75161194
0.99	22.53557659
1	22.31292867
1.01	22.08380322
1.02	21.84833659
1.03	21.60666637
1.04	21.35893137
1.05	21.10527154
1.06	20.84582788
1.07	20.58074243
1.08	20.31015818
1.09	20.03421901
1.1	19.75306963
1.11	19.46685553
1.12	19.17572291
1.13	18.87981862
1.14	18.57929013
1.15	18.2742854
1.16	17.96495291
1.17	17.65144154
1.18	17.33390051
1.19	17.01247938
1.2	16.68732792
1.21	16.35859611
1.22	16.02643403
1.23	15.69099187
1.24	15.35241981
1.25	15.01086799
1.26	14.66648647
1.27	14.31942515
1.28	13.96983374
1.29	13.61786167
1.3	13.26365809
1.31	12.90737175
1.32	12.54915103
1.33	12.18914379
1.34	11.82749742
1.35	11.46435871
1.36	11.09987386
1.37	10.73418837
1.38	10.36744706
1.39	9.999793952
1.4	9.631372282
1.41	9.26232442
1.42	8.892791834
1.43	8.522915046
1.44	8.152833582
1.45	7.782685934
1.46	7.412609515
1.47	7.042740617
1.48	6.673214369
1.49	6.304164696
1.5	5.935724279
1.51	5.568024519
1.52	5.201195494
1.53	4.835365923
1.54	4.470663133
1.55	4.107213016
1.56	3.745139999
1.57	3.38456701
1.58	3.025615439
1.59	2.668405113
1.6	2.313054259
1.61	1.959679473
1.62	1.608395692
1.63	1.259316164
1.64	0.9125524206
1.65	0.5682142461
1.66	0.2264096546
1.67	-0.1127551381
1.68	-0.4491757385
1.69	-0.7827495999
1.7	-1.113376045
1.71	-1.44095629
1.72	-1.765393463
1.73	-2.086592628
1.74	-2.404460801
1.75	-2.718906972
1.76	-3.029842122
1.77	-3.33717924
1.78	-3.640833336
1.79	-3.940721464
1.8	-4.236762726
1.81	-4.528878297
1.82	-4.816991428
1.83	-5.101027462
1.84	-5.380913847
1.85	-5.656580141
1.86	-5.927958026
1.87	-6.194981312
1.88	-6.457585949
1.89	-6.71571003
1.9	-6.969293799
1.91	-7.218279656
1.92	-7.462612158
1.93	-7.702238027
1.94	-7.937106148
1.95	-8.167167574
1.96	-8.392375527
1.97	-8.612685393
1.98	-8.828054728
1.99	-9.038443253
2	-9.243812849
2.01	-9.44412756
2.02	-9.639353585
2.03	-9.829459274
2.04	-10.01441512
2.05	-10.19419376
2.06	-10.36876997
2.07	-10.53812063
2.08	-10.70222476
2.09	-10.86106347
2.1	-11.01461997
2.11	-11.16287957
2.12	-11.30582965
2.13	-11.44345965
2.14	-11.57576106
2.15	-11.70272741
2.16	-11.82435427
2.17	-11.94063919
2.18	-12.05158173
2.19	-12.15718345
2.2	-12.25744784
2.21	-12.35238035
2.22	-12.44198835
2.23	-12.52628114
2.24	-12.6052699
2.25	-12.67896768
2.26	-12.74738938
2.27	-12.81055173
2.28	-12.8684733
2.29	-12.92117441
2.3	-12.96867718
2.31	-13.01100545
2.32	-13.04818481
2.33	-13.08024253
2.34	-13.10720757
2.35	-13.12911053
2.36	-13.14598365
2.37	-13.15786077
2.38	-13.1647773
2.39	-13.16677022
2.4	-13.16387801
2.41	-13.15614067
2.42	-13.14359968
2.43	-13.12629793
2.44	-13.10427977
2.45	-13.07759092
2.46	-13.04627847
2.47	-13.01039083
2.48	-12.96997773
2.49	-12.92509019
2.5	-12.87578044
2.51	-12.82210197
2.52	-12.76410943
2.53	-12.70185864
2.54	-12.63540657
2.55	-12.56481125
2.56	-12.49013181
2.57	-12.4114284
2.58	-12.32876221
2.59	-12.24219537
2.6	-12.15179097
2.61	-12.05761304
2.62	-11.95972646
2.63	-11.85819699
2.64	-11.75309119
2.65	-11.64447645
2.66	-11.53242087
2.67	-11.41699332
2.68	-11.29826336
2.69	-11.1763012
2.7	-11.05117771
2.71	-10.92296434
2.72	-10.79173313
2.73	-10.65755665
2.74	-10.52050801
2.75	-10.38066076
2.76	-10.23808891
2.77	-10.09286692
2.78	-9.945069591
2.79	-9.794772108
2.8	-9.642049974
2.81	-9.486978988
2.82	-9.329635211
2.83	-9.170094942
2.84	-9.008434683
2.85	-8.84473111
2.86	-8.679061044
2.87	-8.511501421
2.88	-8.342129263
2.89	-8.171021649
2.9	-7.998255685
2.91	-7.823908475
2.92	-7.648057095
2.93	-7.470778563
2.94	-7.292149809
2.95	-7.112247653
2.96	-6.93114877
2.97	-6.74892967
2.98	-6.565666664
2.99	-6.381435845
3	-6.196313054
3.01	-6.01037386
3.02	-5.823693531
3.03	-5.636347009
3.04	-5.448408885
3.05	-5.259953375
3.06	-5.071054296
3.07	-4.881785038
3.08	-4.692218546
3.09	-4.502427293
3.1	-4.312483256
3.11	-4.122457896
3.12	-3.932422137
3.13	-3.742446337
3.14	-3.552600275
3.15	-3.362953125
3.16	-3.173573436
3.17	-2.984529111
3.18	-2.79588739
3.19	-2.607714826
3.2	-2.420077271
3.21	-2.233039851
3.22	-2.046666954
3.23	-1.861022208
3.24	-1.676168465
3.25	-1.492167784
3.26	-1.309081412
3.27	-1.126969773
3.28	-0.9458924467
3.29	-0.7659081566
3.3	-0.5870747538
3.31	-0.409449203
3.32	-0.2330875679
3.33	-0.05804499863
3.34	0.1156242824
3.35	0.2878669924
3.36	0.4586308009
3.37	0.6278643411
3.38	0.7955172217
3.39	0.9615400372
3.4	1.125884379
3.41	1.288502844
3.42	1.449349046
3.43	1.608377624
3.44	1.765544249
3.45	1.920805636
3.46	2.074119548
3.47	2.225444806
3.48	2.374741292
3.49	2.521969961
3.5	2.667092842
3.51	2.810073045
3.52	2.950874769
3.53	3.089463301
3.54	3.225805023
3.55	3.359867418
3.56	3.49161907
3.57	3.621029667
3.58	3.748070006
3.59	3.872711991
3.6	3.994928638
3.61	4.114694077
3.62	4.231983546
3.63	4.346773401
3.64	4.459041106
3.65	4.568765242
3.66	4.675925497
3.67	4.780502671
3.68	4.882478674
3.69	4.981836519
3.7	5.078560324
3.71	5.172635308
3.72	5.264047786
3.73	5.352785168
3.74	5.438835954
3.75	5.522189726
3.76	5.602837152
3.77	5.680769969
3.78	5.755980988
3.79	5.828464083
3.8	5.898214184
3.81	5.965227273
3.82	6.029500378
3.83	6.091031562
3.84	6.149819916
3.85	6.205865557
3.86	6.259169611
3.87	6.309734211
3.88	6.357562486
3.89	6.402658552
3.9	6.445027502
3.91	6.484675397
3.92	6.521609257
3.93	6.555837049
3.94	6.587367676
3.95	6.61621097
3.96	6.642377678
3.97	6.665879449
3.98	6.686728826
3.99	6.704939235
4	6.720524967
4.01	6.733501173
4.02	6.743883847
4.03	6.751689815
4.04	6.756936721
4.05	6.759643016
4.06	6.759827943
4.07	6.757511524
4.08	6.752714546
4.09	6.745458549
4.1	6.73576581
4.11	6.72365933
4.12	6.709162818
4.13	6.692300679
4.14	6.673097999
4.15	6.65158053
4.16	6.627774672
4.17	6.601707463
4.18	6.573406563
4.19	6.542900236
4.2	6.510217335
4.21	6.475387291
4.22	6.438440094
4.23	6.399406275
4.24	6.358316898
4.25	6.315203535
4.26	6.270098259
4.27	6.223033622
4.28	6.17404264
4.29	6.123158782
4.3	6.070415946
4.31	6.01584845
4.32	5.959491014
4.33	5.901378741
4.34	5.841547105
4.35	5.780031932
4.36	5.716869387
4.37	5.652095952
4.38	5.585748419
4.39	5.517863867
4.4	5.448479646
4.41	5.377633366
4.42	5.305362875
4.43	5.23170625
4.44	5.156701774
4.45	5.080387925
4.46	5.002803357
4.47	4.923986887
4.48	4.84397748
4.49	4.762814227
4.5	4.68053634
4.51	4.597183127
4.52	4.512793981
4.53	4.427408364
4.54	4.341065795
4.55	4.253805827
4.56	4.165668041
4.57	4.076692027
4.58	3.986917366
4.59	3.896383624
4.6	3.805130329
4.61	3.713196962
4.62	3.620622938
4.63	3.527447599
4.64	3.433710192
4.65	3.339449862
4.66	3.244705635
4.67	3.149516403
4.68	3.053920915
4.69	2.95795776
4.7	2.861665356
4.71	2.765081937
4.72	2.66824554
4.73	2.571193991
4.74	2.473964896
4.75	2.376595627
4.76	2.279123307
4.77	2.181584807
4.78	2.084016722
4.79	1.986455372
4.8	1.888936782
4.81	1.791496675
4.82	1.694170461
4.83	1.596993223
4.84	1.499999713
4.85	1.403224336
4.86	1.306701143
4.87	1.21046382
4.88	1.114545678
4.89	1.018979648
4.9	0.9237982629
4.91	0.829033659
4.92	0.73471756
4.93	0.6408812717
4.94	0.5475556726
4.95	0.4547712066
4.96	0.3625578748
4.97	0.270945228
4.98	0.1799623595
4.99	0.0896378979
5	1.740248175e-15
5.01	-0.0889236555
5.02	-0.1771058746
5.03	-0.2645199542
5.04	-0.3511396881
5.05	-0.4369393725
5.06	-0.5218938118
5.07	-0.6059783238
5.08	-0.6891687445
5.09	-0.7714414333
5.1	-0.8527732772
5.11	-0.9331416954
5.12	-1.012524643
5.13	-1.090900616
5.14	-1.168248653
5.15	-1.244548341
5.16	-1.319779816
5.17	-1.393923769
5.18	-1.466961445
5.19	-1.538874649
5.2	-1.609645747
5.21	-1.679257666
5.22	-1.747693901
5.23	-1.81493851
5.24	-1.88097612
5.25	-1.945791927
5.26	-2.009371697
5.27	-2.071701766
5.28	-2.132769042
5.29	-2.192561003
5.3	-2.251065698
5.31	-2.30827175
5.32	-2.36416835
5.33	-2.41874526
5.34	-2.471992814
5.35	-2.523901911
5.36	-2.574464021
5.37	-2.623671177
5.38	-2.671515978
5.39	-2.717991587
5.4	-2.763091725
5.41	-2.806810674
5.42	-2.849143271
5.43	-2.890084908
5.44	-2.929631528
5.45	-2.967779621
5.46	-3.004526223
5.47	-3.039868912
5.48	-3.073805805
5.49	-3.106335551
5.5	-3.137457335
5.51	-3.167170865
5.52	-3.195476374
5.53	-3.222374613
5.54	-3.247866849
5.55	-3.271954857
5.56	-3.294640918
5.57	-3.315927813
5.58	-3.335818819
5.59	-3.354317703
5.6	-3.371428715
5.61	-3.387156588
5.62	-3.401506524
5.63	-3.414484198
5.64	-3.426095743
5.65	-3.436347752
5.66	-3.445247265
5.67	-3.45280177
5.68	-3.459019188
5.69	-3.463907875
5.7	-3.46747661
5.71	-3.469734591
5.72	-3.470691427
5.73	-3.470357131
5.74	-3.468742117
5.75	-3.465857185
5.76	-3.46171352
5.77	-3.456322687
5.78	-3.449696614
5.79	-3.441847596
5.8	-3.43278828
5.81	-3.422531659
5.82	-3.411091066
5.83	-3.398480168
5.84	-3.384712951
5.85	-3.369803722
5.86	-3.353767094
5.87	-3.33661798
5.88	-3.318371587
5.89	-3.299043406
5.9	-3.278649204
5.91	-3.257205017
5.92	-3.234727143
5.93	-3.21123213
5.94	-3.186736771
5.95	-3.161258097
5.96	-3.134813365
5.97	-3.107420052
5.98	-3.079095846
5.99	-3.04985864
6	-3.019726522
6.01	-2.988717764
6.02	-2.95685082
6.03	-2.924144313
6.04	-2.890617027
6.05	-2.856287901
6.06	-2.82117602
6.07	-2.785300606
6.08	-2.74868101
6.09	-2.711336704
6.1	-2.673287273
6.11	-2.634552407
6.12	-2.595151891
6.13	-2.555105601
6.14	-2.514433492
6.15	-2.473155591
6.16	-2.431291991
6.17	-2.38886284
6.18	-2.345888336
6.19	-2.302388716
6.2	-2.258384251
6.21	-2.213895238
6.22	-2.168941989
6.23	-2.123544829
6.24	-2.077724083
6.25	-2.031500071
6.26	-1.9848931
6.27	-1.937923459
6.28	-1.890611406
6.29	-1.842977167
6.3	-1.795040924
6.31	-1.746822812
6.32	-1.698342908
6.33	-1.649621227
6.34	-1.600677713
6.35	-1.551532234
6.36	-1.502204573
6.37	-1.452714424
6.38	-1.403081384
6.39	-1.353324947
6.4	-1.303464496
6.41	-1.253519299
6.42	-1.203508502
6.43	-1.153451122
6.44	-1.103366042
6.45	-1.053272005
6.46	-1.003187608
6.47	-0.9531312962
6.48	-0.9031213567
6.49	-0.8531759147
6.5	-0.8033129265
6.51	-0.7535501754
6.52	-0.7039052653
6.53	-0.6543956168
6.54	-0.6050384614
6.55	-0.5558508368
6.56	-0.5068495825
6.57	-0.4580513349
6.58	-0.4094725224
6.59	-0.3611293618
6.6	-0.3130378533
6.61	-0.2652137765
6.62	-0.2176726865
6.63	-0.1704299098
6.64	-0.1235005403
6.65	-0.07689943594
6.66	-0.03064121473
6.67	0.01525974855
6.68	0.0607893258
6.69	0.1059336388
6.7	0.1506790624
6.71	0.1950122277
6.72	0.2389200244
6.73	0.2823896043
6.74	0.3254083835
6.75	0.3679640452
6.76	0.4100445418
6.77	0.4516380976
6.78	0.4927332108
6.79	0.5333186554
6.8	0.5733834836
6.81	0.6129170271
6.82	0.6519088993
6.83	0.6903489964
6.84	0.7282274996
6.85	0.7655348756
6.86	0.8022618784
6.87	0.8383995505
6.88	0.8739392234
6.89	0.908872519
6.9	0.9431913503
6.91	0.9768879217
6.92	1.00995473
6.93	1.042384565
6.94	1.074170509
6.95	1.105305937
6.96	1.135784519
6.97	1.165600217
6.98	1.194747287
6.99	1.223220278
7	1.25101403
7.01	1.278123678
7.02	1.304544648
7.03	1.330272655
7.04	1.355303707
7.05	1.379634101
7.06	1.403260421
7.07	1.42617954
7.08	1.448388619
7.09	1.4698851
7.1	1.490666713
7.11	1.510731469
7.12	1.530077658
7.13	1.548703853
7.14	1.566608902
7.15	1.583791929
7.16	1.600252334
7.17	1.615989786
7.18	1.631004227
7.19	1.645295866
7.2	1.658865175
7.21	1.671712893
7.22	1.683840018
7.23	1.695247807
7.24	1.705937772
7.25	1.715911682
7.26	1.725171552
7.27	1.733719647
7.28	1.741558479
7.29	1.748690798
7.3	1.755119599
7.31	1.760848108
7.32	1.765879787
7.33	1.770218328
7.34	1.773867649
7.35	1.776831892
7.36	1.779115421
7.37	1.780722814
7.38	1.781658865
7.39	1.781928577
7.4	1.781537159
7.41	1.780490024
7.42	1.778792785
7.43	1.776451248
7.44	1.773471415
7.45	1.769859471
7.46	1.765621792
7.47	1.760764928
7.48	1.75529561
7.49	1.749220741
7.5	1.742547393
7.51	1.735282801
7.52	1.727434365
7.53	1.719009637
7.54	1.710016327
7.55	1.700462289
7.56	1.690355526
7.57	1.679704178
7.58	1.668516525
7.59	1.656800977
7.6	1.644566073
7.61	1.631820476
7.62	1.618572968
7.63	1.604832448
7.64	1.590607926
7.65	1.575908518
7.66	1.560743445
7.67	1.545122025
7.68	1.529053672
7.69	1.512547889
7.7	1.495614265
7.71	1.478262472
7.72	1.460502259
7.73	1.442343448
7.74	1.423795931
7.75	1.404869663
7.76	1.385574663
7.77	1.365921003
7.78	1.34591881
7.79	1.325578258
7.8	1.304909564
7.81	1.283922988
7.82	1.262628824
7.83	1.241037396
7.84	1.219159059
7.85	1.19700419
7.86	1.174583185
7.87	1.151906456
7.88	1.128984427
7.89	1.105827529
7.9	1.082446198
7.91	1.058850869
7.92	1.035051973
7.93	1.011059933
7.94	0.9868851598
7.95	0.9625380506
7.96	0.938028982
7.97	0.9133683084
7.98	0.8885663577
7.99	0.8636334275
8	0.8385797822
8.01	0.8134156487
8.02	0.7881512135
8.03	0.7627966188
8.04	0.7373619596
8.05	0.7118572798
8.06	0.6862925694
8.07	0.6606777608
8.08	0.6350227259
8.09	0.6093372729
8.1	0.5836311429
8.11	0.557914007
8.12	0.5321954637
8.13	0.506485035
8.14	0.4807921645
8.15	0.4551262137
8.16	0.4294964598
8.17	0.4039120926
8.18	0.3783822118
8.19	0.3529158246
8.2	0.3275218429
8.21	0.3022090807
8.22	0.2769862519
8.23	0.2518619677
8.24	0.226844734
8.25	0.2019429496
8.26	0.1771649037
8.27	0.1525187734
8.28	0.1280126222
8.29	0.1036543973
8.3	0.07945192809
8.31	0.05541292385
8.32	0.03154497203
8.33	0.00785553633
8.34	-0.01564804501
8.35	-0.03895856095
8.36	-0.06206892934
8.37	-0.08497219844
8.38	-0.1076615485
8.39	-0.1301302933
8.4	-0.1523718813
8.41	-0.1743798973
8.42	-0.1961480636
8.43	-0.2176702412
8.44	-0.238940431
8.45	-0.2599527748
8.46	-0.2807015565
8.47	-0.3011812031
8.48	-0.3213862853
8.49	-0.341311519
8.5	-0.3609517651
8.51	-0.3803020315
8.52	-0.3993574727
8.53	-0.4181133908
8.54	-0.4365652364
8.55	-0.4547086087
8.56	-0.4725392558
8.57	-0.4900530756
8.58	-0.5072461158
8.59	-0.5241145742
8.6	-0.5406547988
8.61	-0.5568632883
8.62	-0.5727366919
8.63	-0.5882718094
8.64	-0.6034655911
8.65	-0.618315138
8.66	-0.6328177015
8.67	-0.6469706831
8.68	-0.6607716343
8.69	-0.6742182564
8.7	-0.6873083999
8.71	-0.7000400645
8.72	-0.7124113981
8.73	-0.7244206968
8.74	-0.7360664043
8.75	-0.7473471107
8.76	-0.7582615528
8.77	-0.7688086128
8.78	-0.7789873173
8.79	-0.7887968375
8.8	-0.7982364871
8.81	-0.8073057226
8.82	-0.8160041415
8.83	-0.8243314816
8.84	-0.8322876202
8.85	-0.8398725729
8.86	-0.8470864921
8.87	-0.8539296666
8.88	-0.8604025198
8.89	-0.8665056086
8.9	-0.8722396224
8.91	-0.8776053816
8.92	-0.882603836
8.93	-0.8872360638
8.94	-0.8915032702
8.95	-0.8954067856
8.96	-0.8989480644
8.97	-0.9021286832
8.98	-0.9049503396
8.99	-0.9074148504
9	-0.9095241499
9.01	-0.9112802884
9.02	-0.9126854306
9.03	-0.9137418534
9.04	-0.914451945
9.05	-0.9148182022
9.06	-0.9148432293
9.07	-0.914529736
9.08	-0.9138805357
9.09	-0.9128985433
9.1	-0.9115867737
9.11	-0.9099483398
9.12	-0.9079864502
9.13	-0.9057044079
9.14	-0.9031056078
9.15	-0.900193535
9.16	-0.8969717624
9.17	-0.8934439494
9.18	-0.8896138391
9.19	-0.8854852566
9.2	-0.881062107
9.21	-0.8763483731
9.22	-0.8713481137
9.23	-0.8660654608
9.24	-0.8605046183
9.25	-0.8546698592
9.26	-0.8485655238
9.27	-0.8421960178
9.28	-0.8355658094
9.29	-0.828679428
9.3	-0.8215414614
9.31	-0.814156554
9.32	-0.8065294044
9.33	-0.7986647635
9.34	-0.790567432
9.35	-0.7822422587
9.36	-0.7736941377
9.37	-0.7649280066
9.38	-0.7559488444
9.39	-0.7467616693
9.4	-0.7373715361
9.41	-0.7277835347
9.42	-0.7180027874
9.43	-0.7080344472
9.44	-0.6978836952
9.45	-0.6875557388
9.46	-0.6770558093
9.47	-0.66638916
9.48	-0.6555610642
9.49	-0.6445768125
9.5	-0.6334417113
9.51	-0.6221610806
9.52	-0.6107402516
9.53	-0.599184565
9.54	-0.5874993689
9.55	-0.5756900164
9.56	-0.5637618642
9.57	-0.5517202701
9.58	-0.539570591
9.59	-0.5273181814
9.6	-0.5149683909
9.61	-0.5025265625
9.62	-0.4899980308
9.63	-0.4773881199
9.64	-0.4647021414
9.65	-0.451945393
9.66	-0.4391231561
9.67	-0.4262406945
9.68	-0.413303252
9.69	-0.4003160512
9.7	-0.3872842915
9.71	-0.3742131471
9.72	-0.3611077659
9.73	-0.347973267
9.74	-0.3348147399
9.75	-0.3216372423
9.76	-0.3084457984
9.77	-0.2952453977
9.78	-0.2820409934
9.79	-0.2688375005
9.8	-0.2556397945
9.81	-0.24245271
9.82	-0.2292810391
9.83	-0.2161295302
9.84	-0.203002886
9.85	-0.189905763
9.86	-0.1768427693
9.87	-0.1638184639
9.88	-0.1508373551
9.89	-0.1379038992
9.9	-0.1250224996
9.91	-0.112197505
9.92	-0.09943320909
9.93	-0.08673384842
9.94	-0.07410360203
9.95	-0.06154659005
9.96	-0.04906687267
9.97	-0.03666844917
9.98	-0.0243552569
9.99	-0.0121311703
10	-4.710339593e-16
10.01	0.0120345081
10.02	0.0239686737
10.03	0.03579888293
10.04	0.04752158914
10.05	0.05913331373
10.06	0.07063064684
10.07	0.08201024809
10.08	0.09326884724
10.09	0.1044032449
10.1	0.115410313
10.11	0.1262869956
10.12	0.1370303094
10.13	0.1476373439
10.14	0.1581052624
10.15	0.1684313022
10.16	0.1786127752
10.17	0.1886470681
10.18	0.1985316427
10.19	0.2082640365
10.2	0.2178418631
10.21	0.2272628119
10.22	0.2365246491
10.23	0.2456252173
10.24	0.2545624359
10.25	0.2633343016
10.26	0.2719388878
10.27	0.2803743453
10.28	0.2886389024
10.29	0.2967308643
10.3	0.3046486138
10.31	0.312390611
10.32	0.3199553932
10.33	0.3273415749
10.34	0.3345478476
10.35	0.34157298
10.36	0.3484158175
10.37	0.3550752818
10.38	0.3615503716
10.39	0.3678401612
10.4	0.3739438012
10.41	0.3798605175
10.42	0.3855896116
10.43	0.3911304597
10.44	0.3964825126
10.45	0.4016452956
10.46	0.4066184074
10.47	0.4114015203
10.48	0.4159943792
10.49	0.4203968017
10.5	0.4246086771
10.51	0.4286299661
10.52	0.4324607001
10.53	0.436100981
10.54	0.4395509799
10.55	0.4428109373
10.56	0.4458811618
10.57	0.4487620298
10.58	0.4514539847
10.59	0.4539575364
10.6	0.4562732601
10.61	0.4584017962
10.62	0.4603438489
10.63	0.462100186
10.64	0.4636716378
10.65	0.4650590963
10.66	0.4662635145
10.67	0.4672859055
10.68	0.4681273415
10.69	0.4687889533
