temps	angle
0	0
0.01	0.9865058756
0.02	1.96631535
0.03	2.938678792
0.04	3.902857053
0.05	4.858122006
0.06	5.803757062
0.07	6.739057681
0.08	7.663331866
0.09	8.575900646
0.1	9.476098546
0.11	10.36327404
0.12	11.23679001
0.13	12.09602413
0.14	12.94036933
0.15	13.76923417
0.16	14.58204321
0.17	15.37823741
0.18	16.15727446
0.19	16.9186291
0.2	17.66179351
0.21	18.38627752
0.22	19.09160898
0.23	19.77733399
0.24	20.44301717
0.25	21.08824188
0.26	21.71261049
0.27	22.31574454
0.28	22.89728495
0.29	23.4568922
0.3	23.99424646
0.31	24.50904778
0.32	25.00101614
0.33	25.46989163
0.34	25.9154345
0.35	26.33742523
0.36	26.73566459
0.37	27.10997372
0.38	27.46019407
0.39	27.78618749
0.4	28.08783616
0.41	28.36504259
0.42	28.61772959
0.43	28.84584016
0.44	29.04933749
0.45	29.22820479
0.46	29.38244524
0.47	29.51208185
0.48	29.61715732
0.49	29.69773388
0.5	29.75389315
0.51	29.78573594
0.52	29.79338203
0.53	29.77697001
0.54	29.73665703
0.55	29.67261855
0.56	29.58504812
0.57	29.47415707
0.58	29.3401743
0.59	29.18334591
0.6	29.00393497
0.61	28.80222117
0.62	28.5785005
0.63	28.33308492
0.64	28.066302
0.65	27.77849458
0.66	27.47002038
0.67	27.14125167
0.68	26.79257481
0.69	26.42438992
0.7	26.03711044
0.71	25.63116273
0.72	25.20698564
0.73	24.76503009
0.74	24.30575863
0.75	23.829645
0.76	23.33717368
0.77	22.82883945
0.78	22.30514688
0.79	21.76660993
0.8	21.21375144
0.81	20.64710267
0.82	20.06720281
0.83	19.47459851
0.84	18.86984337
0.85	18.2534975
0.86	17.62612699
0.87	16.98830342
0.88	16.34060339
0.89	15.683608
0.9	15.01790237
0.91	14.34407513
0.92	13.66271796
0.93	12.97442505
0.94	12.27979261
0.95	11.57941844
0.96	10.87390134
0.97	10.16384071
0.98	9.449835998
0.99	8.732486273
1	8.012389698
1.01	7.290143075
1.02	6.56634137
1.03	5.841577243
1.04	5.116440586
1.05	4.391518059
1.06	3.667392643
1.07	2.944643188
1.08	2.223843972
1.09	1.505564266
1.1	0.7903679065
1.11	0.07881286953
1.12	-0.6285491399
1.13	-1.331173097
1.14	-2.028521056
1.15	-2.720062541
1.16	-3.405274929
1.17	-4.083643826
1.18	-4.75466343
1.19	-5.417836886
1.2	-6.072676638
1.21	-6.718704761
1.22	-7.355453292
1.23	-7.982464546
1.24	-8.599291424
1.25	-9.205497708
1.26	-9.800658353
1.27	-10.38435976
1.28	-10.95620002
1.29	-11.51578923
1.3	-12.06274965
1.31	-12.596716
1.32	-13.11733565
1.33	-13.62426886
1.34	-14.1171889
1.35	-14.59578235
1.36	-15.05974918
1.37	-15.50880293
1.38	-15.9426709
1.39	-16.36109425
1.4	-16.76382814
1.41	-17.15064184
1.42	-17.52131881
1.43	-17.87565684
1.44	-18.21346809
1.45	-18.53457916
1.46	-18.83883113
1.47	-19.12607966
1.48	-19.39619494
1.49	-19.64906177
1.5	-19.88457951
1.51	-20.10266214
1.52	-20.30323818
1.53	-20.48625071
1.54	-20.65165729
1.55	-20.79942992
1.56	-20.929555
1.57	-21.04203322
1.58	-21.13687948
1.59	-21.21412282
1.6	-21.27380629
1.61	-21.31598682
1.62	-21.34073513
1.63	-21.34813554
1.64	-21.33828588
1.65	-21.31129726
1.66	-21.26729397
1.67	-21.20641325
1.68	-21.12880513
1.69	-21.03463223
1.7	-20.92406954
1.71	-20.7973042
1.72	-20.65453532
1.73	-20.49597369
1.74	-20.32184159
1.75	-20.13237249
1.76	-19.92781085
1.77	-19.70841183
1.78	-19.474441
1.79	-19.22617411
1.8	-18.96389678
1.81	-18.68790419
1.82	-18.39850084
1.83	-18.0960002
1.84	-17.78072442
1.85	-17.45300402
1.86	-17.11317757
1.87	-16.76159139
1.88	-16.39859918
1.89	-16.02456174
1.9	-15.6398466
1.91	-15.2448277
1.92	-14.83988504
1.93	-14.42540437
1.94	-14.00177678
1.95	-13.56939844
1.96	-13.12867016
1.97	-12.67999712
1.98	-12.22378843
1.99	-11.76045689
2	-11.29041851
2.01	-10.81409226
2.02	-10.33189965
2.03	-9.844264396
2.04	-9.351612084
2.05	-8.85436978
2.06	-8.352965702
2.07	-7.847828858
2.08	-7.3393887
2.09	-6.828074772
2.1	-6.314316365
2.11	-5.798542174
2.12	-5.28117995
2.13	-4.762656169
2.14	-4.24339569
2.15	-3.723821426
2.16	-3.204354011
2.17	-2.685411477
2.18	-2.167408933
2.19	-1.650758247
2.2	-1.135867733
2.21	-0.6231418461
2.22	-0.112980874
2.23	0.3942193551
2.24	0.898067768
2.25	1.398178332
2.26	1.894170336
2.27	2.385668667
2.28	2.872304076
2.29	3.353713443
2.3	3.829540033
2.31	4.299433742
2.32	4.763051345
2.33	5.220056727
2.34	5.670121113
2.35	6.112923288
2.36	6.548149814
2.37	6.975495231
2.38	7.394662261
2.39	7.805361992
2.4	8.207314069
2.41	8.600246861
2.42	8.983897632
2.43	9.3580127
2.44	9.722347585
2.45	10.07666715
2.46	10.42074574
2.47	10.7543673
2.48	11.07732551
2.49	11.38942384
2.5	11.69047574
2.51	11.98030464
2.52	12.2587441
2.53	12.52563781
2.54	12.78083976
2.55	13.0242142
2.56	13.25563572
2.57	13.47498932
2.58	13.68217039
2.59	13.87708477
2.6	14.05964875
2.61	14.22978906
2.62	14.3874429
2.63	14.5325579
2.64	14.66509211
2.65	14.78501397
2.66	14.89230228
2.67	14.98694614
2.68	15.06894491
2.69	15.13830814
2.7	15.19505552
2.71	15.23921678
2.72	15.27083162
2.73	15.28994961
2.74	15.2966301
2.75	15.29094211
2.76	15.2729642
2.77	15.2427844
2.78	15.2005
2.79	15.14621751
2.8	15.08005245
2.81	15.00212922
2.82	14.91258096
2.83	14.8115494
2.84	14.69918464
2.85	14.57564506
2.86	14.44109706
2.87	14.29571494
2.88	14.13968068
2.89	13.97318375
2.9	13.79642095
2.91	13.60959615
2.92	13.4129201
2.93	13.20661025
2.94	12.99089052
2.95	12.76599105
2.96	12.53214802
2.97	12.28960339
2.98	12.03860471
2.99	11.77940484
3	11.51226174
3.01	11.23743825
3.02	10.9552018
3.03	10.66582421
3.04	10.36958142
3.05	10.06675327
3.06	9.75762321
3.07	9.442478095
3.08	9.1216079
3.09	8.795305482
3.1	8.463866325
3.11	8.127588283
3.12	7.786771332
3.13	7.44171731
3.14	7.092729662
3.15	6.740113193
3.16	6.384173804
3.17	6.025218249
3.18	5.663553875
3.19	5.299488374
3.2	4.933329533
3.21	4.565384986
3.22	4.195961964
3.23	3.825367053
3.24	3.453905949
3.25	3.081883218
3.26	2.709602055
3.27	2.337364053
3.28	1.965468962
3.29	1.594214465
3.3	1.223895948
3.31	0.8548062746
3.32	0.4872355664
3.33	0.1214709855
3.34	-0.2422034797
3.35	-0.6035072241
3.36	-0.962163232
3.37	-1.317898278
3.38	-1.670443128
3.39	-2.019532725
3.4	-2.364906387
3.41	-2.706307984
3.42	-3.04348612
3.43	-3.376194306
3.44	-3.704191131
3.45	-4.027240426
3.46	-4.345111421
3.47	-4.657578901
3.48	-4.964423352
3.49	-5.265431105
3.5	-5.560394476
3.51	-5.849111892
3.52	-6.131388021
3.53	-6.407033891
3.54	-6.675867005
3.55	-6.937711446
3.56	-7.192397984
3.57	-7.43976417
3.58	-7.679654426
3.59	-7.911920132
3.6	-8.136419699
3.61	-8.353018648
3.62	-8.561589668
3.63	-8.762012682
3.64	-8.9541749
3.65	-9.13797086
3.66	-9.313302479
3.67	-9.480079078
3.68	-9.638217419
3.69	-9.787641723
3.7	-9.928283686
3.71	-10.06008249
3.72	-10.18298482
3.73	-10.29694483
3.74	-10.40192416
3.75	-10.49789194
3.76	-10.58482472
3.77	-10.66270649
3.78	-10.73152862
3.79	-10.79128983
3.8	-10.84199617
3.81	-10.88366093
3.82	-10.91630462
3.83	-10.9399549
3.84	-10.95464649
3.85	-10.96042116
3.86	-10.95732759
3.87	-10.94542133
3.88	-10.92476468
3.89	-10.89542664
3.9	-10.85748279
3.91	-10.81101519
3.92	-10.75611228
3.93	-10.69286877
3.94	-10.62138552
3.95	-10.54176945
3.96	-10.45413336
3.97	-10.35859587
3.98	-10.25528125
3.99	-10.14431927
4	-10.02584513
4.01	-9.899999237
4.02	-9.766927126
4.03	-9.626779274
4.04	-9.479710962
4.05	-9.325882119
4.06	-9.165457169
4.07	-8.998604865
4.08	-8.825498134
4.09	-8.646313907
4.1	-8.461232955
4.11	-8.270439722
4.12	-8.074122151
4.13	-7.872471514
4.14	-7.665682236
4.15	-7.453951721
4.16	-7.237480175
4.17	-7.016470427
4.18	-6.79112775
4.19	-6.561659682
4.2	-6.328275845
4.21	-6.09118776
4.22	-5.850608672
4.23	-5.606753362
4.24	-5.359837966
4.25	-5.110079794
4.26	-4.857697149
4.27	-4.602909141
4.28	-4.345935508
4.29	-4.086996437
4.3	-3.82631238
4.31	-3.564103878
4.32	-3.300591379
4.33	-3.035995067
4.34	-2.770534679
4.35	-2.504429336
4.36	-2.237897367
4.37	-1.971156138
4.38	-1.704421886
4.39	-1.437909547
4.4	-1.171832592
4.41	-0.9064028646
4.42	-0.6418304202
4.43	-0.378323366
4.44	-0.1160877057
4.45	0.1446728138
4.46	0.4037568535
4.47	0.6609656301
4.48	0.9161030605
4.49	1.168975904
4.5	1.419393902
4.51	1.667169911
4.52	1.912120038
4.53	2.154063766
4.54	2.392824081
4.55	2.628227596
4.56	2.860104664
4.57	3.088289495
4.58	3.312620269
4.59	3.532939239
4.6	3.749092833
4.61	3.960931758
4.62	4.16831109
4.63	4.371090366
4.64	4.569133671
4.65	4.762309721
4.66	4.950491938
4.67	5.133558528
4.68	5.311392548
4.69	5.483881971
4.7	5.65091975
4.71	5.812403869
4.72	5.968237401
4.73	6.118328551
4.74	6.262590704
4.75	6.400942457
4.76	6.533307661
4.77	6.659615447
4.78	6.779800249
4.79	6.893801833
4.8	7.001565304
4.81	7.103041127
4.82	7.198185128
4.83	7.286958502
4.84	7.36932781
4.85	7.445264975
4.86	7.514747272
4.87	7.577757313
4.88	7.634283033
4.89	7.684317662
4.9	7.727859706
4.91	7.764912909
4.92	7.795486225
4.93	7.819593775
4.94	7.837254808
4.95	7.848493653
4.96	7.85333967
4.97	7.851827195
4.98	7.843995485
4.99	7.829888652
5	7.809555605
5.01	7.783049977
5.02	7.750430054
5.03	7.711758704
5.04	7.667103294
5.05	7.616535611
5.06	7.560131778
5.07	7.497972167
5.08	7.430141307
5.09	7.356727794
5.1	7.277824192
5.11	7.193526935
5.12	7.103936229
5.13	7.009155948
5.14	6.909293523
5.15	6.804459843
5.16	6.694769138
5.17	6.580338869
5.18	6.461289615
5.19	6.337744957
5.2	6.209831357
5.21	6.077678047
5.22	5.941416897
5.23	5.801182303
5.24	5.657111058
5.25	5.509342229
5.26	5.358017032
5.27	5.203278703
5.28	5.045272373
5.29	4.884144939
5.3	4.720044934
5.31	4.553122399
5.32	4.383528751
5.33	4.211416655
5.34	4.036939894
5.35	3.860253234
5.36	3.681512298
5.37	3.500873433
5.38	3.318493581
5.39	3.134530149
5.4	2.949140876
5.41	2.76248371
5.42	2.574716674
5.43	2.385997739
5.44	2.196484702
5.45	2.006335053
5.46	1.815705854
5.47	1.624753613
5.48	1.433634164
5.49	1.242502542
5.5	1.051512865
5.51	0.8608182144
5.52	0.6705705183
5.53	0.4809204355
5.54	0.2920172422
5.55	0.1040087194
5.56	-0.08295895682
5.57	-0.2687413238
5.58	-0.4531957384
5.59	-0.636181481
5.6	-0.8175598574
5.61	-0.9971942987
5.62	-1.174950458
5.63	-1.350696308
5.64	-1.524302227
5.65	-1.695641099
5.66	-1.86458839
5.67	-2.031022244
5.68	-2.194823555
5.69	-2.355876053
5.7	-2.514066381
5.71	-2.669284163
5.72	-2.821422082
5.73	-2.970375945
5.74	-3.116044746
5.75	-3.258330734
5.76	-3.397139467
5.77	-3.532379872
5.78	-3.663964297
5.79	-3.791808558
5.8	-3.915831992
5.81	-4.035957496
5.82	-4.152111573
5.83	-4.264224363
5.84	-4.372229682
5.85	-4.476065053
5.86	-4.575671734
5.87	-4.670994741
5.88	-4.761982872
5.89	-4.848588727
5.9	-4.930768718
5.91	-5.008483087
5.92	-5.081695913
5.93	-5.150375117
5.94	-5.214492468
5.95	-5.274023577
5.96	-5.3289479
5.97	-5.379248728
5.98	-5.424913178
5.99	-5.465932181
6	-5.502300467
6.01	-5.534016545
6.02	-5.561082683
6.03	-5.583504882
6.04	-5.601292852
6.05	-5.614459977
6.06	-5.623023288
6.07	-5.627003424
6.08	-5.626424592
6.09	-5.621314532
6.1	-5.611704468
6.11	-5.597629064
6.12	-5.579126377
6.13	-5.556237803
6.14	-5.529008027
6.15	-5.497484963
6.16	-5.4617197
6.17	-5.421766442
6.18	-5.377682441
6.19	-5.329527939
6.2	-5.277366095
6.21	-5.221262922
6.22	-5.161287215
6.23	-5.097510477
6.24	-5.030006848
6.25	-4.958853028
6.26	-4.884128199
6.27	-4.80591395
6.28	-4.724294191
6.29	-4.639355078
6.3	-4.551184924
6.31	-4.459874119
6.32	-4.365515045
6.33	-4.268201985
6.34	-4.168031042
6.35	-4.065100046
6.36	-3.959508466
6.37	-3.85135732
6.38	-3.740749086
6.39	-3.627787608
6.4	-3.512578007
6.41	-3.395226585
6.42	-3.275840736
6.43	-3.154528851
6.44	-3.031400223
6.45	-2.906564958
6.46	-2.780133878
6.47	-2.652218428
6.48	-2.522930582
6.49	-2.392382751
6.5	-2.26068769
6.51	-2.127958402
6.52	-1.99430805
6.53	-1.85984986
6.54	-1.724697033
6.55	-1.588962653
6.56	-1.452759595
6.57	-1.316200438
6.58	-1.179397374
6.59	-1.04246212
6.6	-0.9055058317
6.61	-0.7686390162
6.62	-0.6319714481
6.63	-0.4956120847
6.64	-0.3596689827
6.65	-0.2242492174
6.66	-0.08945880126
6.67	0.04459739421
6.68	0.1778157168
6.69	0.3100938098
6.7	0.4413306862
6.71	0.5714268026
6.72	0.7002841304
6.73	0.8278062258
6.74	0.9538982981
6.75	1.078467276
6.76	1.201421873
6.77	1.32267265
6.78	1.442132074
6.79	1.559714583
6.8	1.675336636
6.81	1.788916774
6.82	1.900375671
6.83	2.009636184
6.84	2.116623404
6.85	2.221264701
6.86	2.323489773
6.87	2.423230684
6.88	2.520421907
6.89	2.615000361
6.9	2.706905449
6.91	2.796079091
6.92	2.882465757
6.93	2.966012493
6.94	3.046668953
6.95	3.12438742
6.96	3.199122831
6.97	3.270832797
6.98	3.33947762
6.99	3.405020312
7	3.467426603
7.01	3.52666496
7.02	3.582706589
7.03	3.635525446
7.04	3.685098238
7.05	3.73140443
7.06	3.774426243
7.07	3.814148649
7.08	3.850559371
7.09	3.883648873
7.1	3.913410355
7.11	3.939839738
7.12	3.962935653
7.13	3.982699428
7.14	3.999135066
7.15	4.012249229
7.16	4.022051219
7.17	4.028552947
7.18	4.031768916
7.19	4.03171619
7.2	4.028414364
7.21	4.021885536
7.22	4.012154273
7.23	3.999247573
7.24	3.983194836
7.25	3.964027818
7.26	3.941780597
7.27	3.91648953
7.28	3.888193209
7.29	3.856932417
7.3	3.822750082
7.31	3.785691232
7.32	3.745802941
7.33	3.703134284
7.34	3.657736282
7.35	3.609661853
7.36	3.558965751
7.37	3.505704521
7.38	3.449936432
7.39	3.391721428
7.4	3.331121065
7.41	3.268198455
7.42	3.203018203
7.43	3.135646347
7.44	3.066150296
7.45	2.994598769
7.46	2.921061729
7.47	2.845610322
7.48	2.768316811
7.49	2.689254511
7.5	2.608497725
7.51	2.526121675
7.52	2.442202441
7.53	2.356816889
7.54	2.270042609
7.55	2.181957846
7.56	2.092641431
7.57	2.002172717
7.58	1.910631514
7.59	1.818098014
7.6	1.724652734
7.61	1.630376439
7.62	1.535350086
7.63	1.439654747
7.64	1.343371553
7.65	1.246581621
7.66	1.149365991
7.67	1.051805561
7.68	0.9539810245
7.69	0.8559728045
7.7	0.7578609906
7.71	0.6597252771
7.72	0.5616449006
7.73	0.4636985794
7.74	0.3659644525
7.75	0.2685200209
7.76	0.1714420881
7.77	0.074806703
7.78	-0.02131089721
7.79	-0.1168363427
7.8	-0.2116961857
7.81	-0.3058179545
7.82	-0.3991302054
7.83	-0.4915625748
7.84	-0.5830458291
7.85	-0.6735119138
7.86	-0.7628940013
7.87	-0.8511265375
7.88	-0.9381452869
7.89	-1.023887376
7.9	-1.108291338
7.91	-1.19129715
7.92	-1.272846277
7.93	-1.352881707
7.94	-1.431347989
7.95	-1.508191269
7.96	-1.583359323
7.97	-1.65680159
7.98	-1.728469201
7.99	-1.798315012
8	-1.866293627
8.01	-1.932361428
8.02	-1.996476596
8.03	-2.058599138
8.04	-2.118690906
8.05	-2.176715616
8.06	-2.232638868
8.07	-2.28642816
8.08	-2.338052905
8.09	-2.387484445
8.1	-2.434696059
8.11	-2.479662976
8.12	-2.522362382
8.13	-2.562773428
8.14	-2.600877232
8.15	-2.636656887
8.16	-2.670097458
8.17	-2.701185986
8.18	-2.729911485
8.19	-2.756264938
8.2	-2.780239297
8.21	-2.801829469
8.22	-2.821032317
8.23	-2.837846645
8.24	-2.852273188
8.25	-2.864314605
8.26	-2.873975457
8.27	-2.881262199
8.28	-2.88618316
8.29	-2.888748527
8.3	-2.888970322
8.31	-2.886862387
8.32	-2.882440357
8.33	-2.875721639
8.34	-2.866725387
8.35	-2.855472475
8.36	-2.841985473
8.37	-2.826288615
8.38	-2.808407772
8.39	-2.788370419
8.4	-2.766205607
8.41	-2.741943925
8.42	-2.715617472
8.43	-2.687259817
8.44	-2.656905966
8.45	-2.624592324
8.46	-2.590356659
8.47	-2.554238061
8.48	-2.516276903
8.49	-2.476514804
8.5	-2.434994584
8.51	-2.391760223
8.52	-2.346856821
8.53	-2.300330552
8.54	-2.252228624
8.55	-2.20259923
8.56	-2.151491506
8.57	-2.098955488
8.58	-2.045042061
8.59	-1.989802918
8.6	-1.93329051
8.61	-1.875557999
8.62	-1.816659216
8.63	-1.756648608
8.64	-1.69558119
8.65	-1.633512504
8.66	-1.570498565
8.67	-1.506595813
8.68	-1.441861068
8.69	-1.376351483
8.7	-1.310124489
8.71	-1.243237756
8.72	-1.175749137
8.73	-1.107716628
8.74	-1.039198312
8.75	-0.9702523202
8.76	-0.9009367778
8.77	-0.8313097617
8.78	-0.7614292518
8.79	-0.6913530857
8.8	-0.6211389126
8.81	-0.5508441481
8.82	-0.4805259293
8.83	-0.4102410704
8.84	-0.3400460189
8.85	-0.2699968121
8.86	-0.2001490347
8.87	-0.1305577765
8.88	-0.06127759086
8.89	0.007637545656
8.9	0.07613427377
8.91	0.1441598906
8.92	0.2116623881
8.93	0.2785904912
8.94	0.3448936943
8.95	0.4105222976
8.96	0.4754274424
8.97	0.5395611453
8.98	0.6028763317
8.99	0.6653268682
9	0.7268675943
9.01	0.7874543531
9.02	0.8470440206
9.03	0.9055945342
9.04	0.9630649206
9.05	1.019415322
9.06	1.074607023
9.07	1.128602471
9.08	1.181365304
9.09	1.232860371
9.1	1.283053752
9.11	1.331912781
9.12	1.379406061
9.13	1.425503484
9.14	1.470176247
9.15	1.513396868
9.16	1.555139199
9.17	1.595378442
9.18	1.634091155
9.19	1.671255271
9.2	1.706850099
9.21	1.740856339
9.22	1.773256087
9.23	1.804032839
9.24	1.833171499
9.25	1.860658382
9.26	1.886481215
9.27	1.910629141
9.28	1.933092716
9.29	1.953863912
9.3	1.972936111
9.31	1.990304106
9.32	2.005964094
9.33	2.019913669
9.34	2.032151821
9.35	2.042678925
9.36	2.051496731
9.37	2.058608358
9.38	2.064018281
9.39	2.067732318
9.4	2.069757622
9.41	2.070102661
9.42	2.068777211
9.43	2.06579233
9.44	2.061160353
9.45	2.054894866
9.46	2.047010689
9.47	2.03752386
9.48	2.026451612
9.49	2.013812354
9.5	1.999625645
9.51	1.983912178
9.52	1.966693748
9.53	1.947993237
9.54	1.927834583
9.55	1.906242754
9.56	1.883243728
9.57	1.858864457
9.58	1.833132847
9.59	1.806077727
9.6	1.77772882
9.61	1.748116713
9.62	1.717272829
9.63	1.685229395
9.64	1.652019414
9.65	1.617676629
9.66	1.582235496
9.67	1.545731149
9.68	1.508199371
9.69	1.469676556
9.7	1.43019968
9.71	1.389806268
9.72	1.348534359
9.73	1.30642247
9.74	1.263509568
9.75	1.21983503
9.76	1.175438613
9.77	1.130360416
9.78	1.08464085
9.79	1.038320599
9.8	0.9914405898
9.81	0.9440419537
9.82	0.8961659948
9.83	0.8478541549
9.84	0.7991479789
9.85	0.7500890811
9.86	0.7007191113
9.87	0.6510797206
9.88	0.6012125282
9.89	0.5511590879
9.9	0.5009608553
9.91	0.4506591542
9.92	0.400295145
9.93	0.349909792
9.94	0.2995438316
9.95	0.2492377409
9.96	0.1990317066
9.97	0.1489655943
9.98	0.09907891856
9.99	0.04941081273
10	1.920604578e-15
10.01	-0.04911523547
10.02	-0.09789707677
10.03	-0.1463082019
10.04	-0.1943118109
10.05	-0.2418716525
10.06	-0.2889520497
10.07	-0.3355179255
10.08	-0.3815348275
10.09	-0.4269689518
10.1	-0.4717871662
10.11	-0.5159570333
10.12	-0.5594468324
10.13	-0.6022255804
10.14	-0.6442630527
10.15	-0.685529803
10.16	-0.7259971823
10.17	-0.7656373574
10.18	-0.8044233279
10.19	-0.8423289439
10.2	-0.8793289209
10.21	-0.915398856
10.22	-0.9505152416
10.23	-0.9846554795
10.24	-1.017797893
10.25	-1.04992174
10.26	-1.081007223
10.27	-1.111035499
10.28	-1.139988691
10.29	-1.167849896
10.3	-1.194603189
10.31	-1.220233637
10.32	-1.2447273
10.33	-1.268071236
10.34	-1.290253509
10.35	-1.31126319
10.36	-1.331090361
10.37	-1.349726115
10.38	-1.36716256
10.39	-1.383392816
10.4	-1.398411019
10.41	-1.412212315
10.42	-1.424792859
10.43	-1.436149816
10.44	-1.446281351
10.45	-1.45518663
10.46	-1.46286581
10.47	-1.469320037
10.48	-1.474551436
10.49	-1.478563107
10.5	-1.481359113
10.51	-1.482944471
10.52	-1.483325148
10.53	-1.482508042
10.54	-1.480500977
10.55	-1.477312689
10.56	-1.472952813
10.57	-1.467431873
10.58	-1.460761264
10.59	-1.452953238
10.6	-1.444020893
10.61	-1.433978155
10.62	-1.422839758
10.63	-1.410621236
10.64	-1.397338896
10.65	-1.383009809
10.66	-1.367651783
10.67	-1.351283352
10.68	-1.333923754
10.69	-1.315592908
10.7	-1.296311398
10.71	-1.276100451
10.72	-1.254981917
10.73	-1.232978246
10.74	-1.210112467
10.75	-1.186408165
10.76	-1.161889462
10.77	-1.13658099
10.78	-1.110507873
10.79	-1.083695697
10.8	-1.056170493
10.81	-1.027958712
