temps	angle
0	0
0.01	0.3754639309
0.02	0.7477972817
0.03	1.116887303
0.04	1.482623345
0.05	1.844896877
0.06	2.203601516
0.07	2.558633045
0.08	2.909889437
0.09	3.257270873
0.1	3.600679763
0.11	3.940020763
0.12	4.275200794
0.13	4.606129057
0.14	4.932717049
0.15	5.254878577
0.16	5.572529772
0.17	5.8855891
0.18	6.193977378
0.19	6.497617778
0.2	6.796435842
0.21	7.090359487
0.22	7.379319016
0.23	7.663247123
0.24	7.942078897
0.25	8.215751832
0.26	8.484205825
0.27	8.747383184
0.28	9.005228627
0.29	9.257689285
0.3	9.5047147
0.31	9.746256828
0.32	9.982270035
0.33	10.2127111
0.34	10.43753919
0.35	10.65671589
0.36	10.87020519
0.37	11.07797344
0.38	11.27998939
0.39	11.47622418
0.4	11.66665129
0.41	11.85124659
0.42	12.02998826
0.43	12.20285687
0.44	12.36983526
0.45	12.53090863
0.46	12.68606447
0.47	12.83529253
0.48	12.97858487
0.49	13.1159358
0.5	13.24734186
0.51	13.37280183
0.52	13.49231668
0.53	13.60588959
0.54	13.71352591
0.55	13.81523314
0.56	13.9110209
0.57	14.00090093
0.58	14.08488708
0.59	14.16299525
0.6	14.23524338
0.61	14.30165145
0.62	14.36224144
0.63	14.41703731
0.64	14.46606494
0.65	14.50935218
0.66	14.54692875
0.67	14.57882627
0.68	14.60507819
0.69	14.62571978
0.7	14.64078811
0.71	14.65032202
0.72	14.65436209
0.73	14.65295059
0.74	14.64613148
0.75	14.63395038
0.76	14.61645452
0.77	14.5936927
0.78	14.56571532
0.79	14.53257427
0.8	14.49432296
0.81	14.45101624
0.82	14.40271043
0.83	14.34946321
0.84	14.29133364
0.85	14.22838214
0.86	14.1606704
0.87	14.08826139
0.88	14.01121932
0.89	13.9296096
0.9	13.8434988
0.91	13.75295463
0.92	13.6580459
0.93	13.55884249
0.94	13.4554153
0.95	13.34783624
0.96	13.23617818
0.97	13.12051491
0.98	13.00092111
0.99	12.87747234
1	12.75024496
1.01	12.61931613
1.02	12.48476376
1.03	12.3466665
1.04	12.20510364
1.05	12.06015516
1.06	11.91190165
1.07	11.76042425
1.08	11.60580468
1.09	11.44812515
1.1	11.28746836
1.11	11.12391744
1.12	10.95755595
1.13	10.78846778
1.14	10.61673721
1.15	10.4424488
1.16	10.26568738
1.17	10.08653802
1.18	9.905086008
1.19	9.721416789
1.2	9.535615956
1.21	9.347769204
1.22	9.157962305
1.23	8.966281069
1.24	8.772811318
1.25	8.57763885
1.26	8.38084941
1.27	8.182528658
1.28	7.982762136
1.29	7.781635242
1.3	7.579233193
1.31	7.375641003
1.32	7.170943443
1.33	6.965225023
1.34	6.758569954
1.35	6.551062123
1.36	6.342785063
1.37	6.133821928
1.38	5.924255462
1.39	5.714167972
1.4	5.503641304
1.41	5.292756811
1.42	5.081595334
1.43	4.870237169
1.44	4.658762047
1.45	4.447249105
1.46	4.235776866
1.47	4.02442321
1.48	3.813265354
1.49	3.602379826
1.5	3.391842445
1.51	3.181728297
1.52	2.972111711
1.53	2.763066242
1.54	2.554664647
1.55	2.346978866
1.56	2.14008
1.57	1.934038291
1.58	1.728923108
1.59	1.524802922
1.6	1.321745291
1.61	1.119816841
1.62	0.9190832524
1.63	0.7196092367
1.64	0.521458526
1.65	0.3246938549
1.66	0.1293769455
1.67	-0.06443150749
1.68	-0.2566718506
1.69	-0.4472854857
1.7	-0.6362148831
1.71	-0.8234035944
1.72	-1.008796265
1.73	-1.192338644
1.74	-1.3739776
1.75	-1.553661127
1.76	-1.731338356
1.77	-1.906959566
1.78	-2.080476192
1.79	-2.251840836
1.8	-2.421007272
1.81	-2.587930456
1.82	-2.75256653
1.83	-2.914872836
1.84	-3.074807913
1.85	-3.232331509
1.86	-3.387404586
1.87	-3.539989321
1.88	-3.690049114
1.89	-3.837548589
1.9	-3.9824536
1.91	-4.124731232
1.92	-4.264349805
1.93	-4.401278872
1.94	-4.535489227
1.95	-4.6669529
1.96	-4.795643158
1.97	-4.92153451
1.98	-5.044602702
1.99	-5.164824716
2	-5.282178771
2.01	-5.39664432
2.02	-5.508202049
2.03	-5.616833871
2.04	-5.722522927
2.05	-5.82525358
2.06	-5.925011411
2.07	-6.021783218
2.08	-6.115557004
2.09	-6.20632198
2.1	-6.294068554
2.11	-6.378788327
2.12	-6.460474087
2.13	-6.5391198
2.14	-6.614720606
2.15	-6.687272808
2.16	-6.756773867
2.17	-6.823222393
2.18	-6.886618134
2.19	-6.946961972
2.2	-7.004255907
2.21	-7.058503054
2.22	-7.109707629
2.23	-7.157874939
2.24	-7.203011373
2.25	-7.245124387
2.26	-7.2842225
2.27	-7.320315276
2.28	-7.353413313
2.29	-7.383528234
2.3	-7.410672672
2.31	-7.434860257
2.32	-7.456105605
2.33	-7.474424303
2.34	-7.489832896
2.35	-7.502348875
2.36	-7.511990659
2.37	-7.518777584
2.38	-7.522729888
2.39	-7.523868696
2.4	-7.522216006
2.41	-7.51779467
2.42	-7.510628386
2.43	-7.500741675
2.44	-7.48815987
2.45	-7.472909098
2.46	-7.455016267
2.47	-7.434509045
2.48	-7.411415848
2.49	-7.385765821
2.5	-7.357588823
2.51	-7.32691541
2.52	-7.293776816
2.53	-7.25820494
2.54	-7.220232324
2.55	-7.179892141
2.56	-7.137218175
2.57	-7.092244802
2.58	-7.045006976
2.59	-6.995540209
2.6	-6.943880556
2.61	-6.890064594
2.62	-6.834129406
2.63	-6.776112564
2.64	-6.716052111
2.65	-6.653986541
2.66	-6.589954783
2.67	-6.523996185
2.68	-6.456150491
2.69	-6.386457829
2.7	-6.314958689
2.71	-6.241693906
2.72	-6.166704643
2.73	-6.090032373
2.74	-6.011718861
2.75	-5.931806146
2.76	-5.850336522
2.77	-5.767352525
2.78	-5.682896909
2.79	-5.597012633
2.8	-5.509742843
2.81	-5.42113085
2.82	-5.331220121
2.83	-5.240054253
2.84	-5.147676962
2.85	-5.054132063
2.86	-4.959463454
2.87	-4.863715098
2.88	-4.766931008
2.89	-4.669155228
2.9	-4.57043182
2.91	-4.470804843
2.92	-4.37031834
2.93	-4.269016321
2.94	-4.166942748
2.95	-4.064141516
2.96	-3.96065644
2.97	-3.85653124
2.98	-3.751809523
2.99	-3.646534769
3	-3.540750317
3.01	-3.434499349
3.02	-3.327824875
3.03	-3.220769719
3.04	-3.113376506
3.05	-3.005687643
3.06	-2.897745312
3.07	-2.78959145
3.08	-2.681267741
3.09	-2.572815596
3.1	-2.464276146
3.11	-2.355690227
3.12	-2.247098364
3.13	-2.138540764
3.14	-2.0300573
3.15	-1.9216875
3.16	-1.813470535
3.17	-1.705445206
3.18	-1.597649937
3.19	-1.490122758
3.2	-1.382901298
3.21	-1.276022772
3.22	-1.169523974
3.23	-1.063441262
3.24	-0.9578105516
3.25	-0.852667305
3.26	-0.7480465212
3.27	-0.6439827274
3.28	-0.5405099695
3.29	-0.4376618038
3.3	-0.3354712879
3.31	-0.2339709731
3.32	-0.133192896
3.33	-0.03316857064
3.34	0.0660710185
3.35	0.1644954242
3.36	0.2620747434
3.37	0.3587796235
3.38	0.4545812695
3.39	0.5494514498
3.4	0.6433625021
3.41	0.7362873393
3.42	0.8281994548
3.43	0.9190729277
3.44	1.008882428
3.45	1.097603221
3.46	1.18521117
3.47	1.271682746
3.48	1.356995024
3.49	1.441125692
3.5	1.524053052
3.51	1.605756026
3.52	1.686214154
3.53	1.7654076
3.54	1.843317156
3.55	1.919924239
3.56	1.995210897
3.57	2.06915981
3.58	2.141754289
3.59	2.21297828
3.6	2.282816365
3.61	2.351253758
3.62	2.418276312
3.63	2.483870515
3.64	2.548023489
3.65	2.610722995
3.66	2.671957427
3.67	2.731715812
3.68	2.789987814
3.69	2.846763725
3.7	2.902034471
3.71	2.955791604
3.72	3.008027306
3.73	3.058734382
3.74	3.107906259
3.75	3.155536987
3.76	3.20162123
3.77	3.246154268
3.78	3.289131993
3.79	3.330550904
3.8	3.370408105
3.81	3.408701299
3.82	3.445428788
3.83	3.480589464
3.84	3.514182809
3.85	3.54620889
3.86	3.576668349
3.87	3.605562406
3.88	3.632892849
3.89	3.65866203
3.9	3.682872858
3.91	3.705528798
3.92	3.726633861
3.93	3.746192599
3.94	3.764210101
3.95	3.780691983
3.96	3.795644387
3.97	3.809073971
3.98	3.820987901
3.99	3.831393848
4	3.840299981
4.01	3.847714956
4.02	3.853647913
4.03	3.858108466
4.04	3.861106698
4.05	3.862653152
4.06	3.862758825
4.07	3.861435156
4.08	3.858694026
4.09	3.854547742
4.1	3.849009034
4.11	3.842091045
4.12	3.833807324
4.13	3.824171817
4.14	3.813198857
4.15	3.80090316
4.16	3.787299812
4.17	3.772404265
4.18	3.756232322
4.19	3.738800135
4.2	3.720124191
4.21	3.700221309
4.22	3.679108625
4.23	3.656803586
4.24	3.633323942
4.25	3.608687735
4.26	3.582913291
4.27	3.556019212
4.28	3.528024366
4.29	3.498947875
4.3	3.468809112
4.31	3.437627686
4.32	3.405423437
4.33	3.372216424
4.34	3.338026917
4.35	3.30287539
4.36	3.266782507
4.37	3.229769116
4.38	3.19185624
4.39	3.153065067
4.4	3.11341694
4.41	3.072933352
4.42	3.031635929
4.43	2.989546429
4.44	2.946686728
4.45	2.903078814
4.46	2.858744775
4.47	2.813706793
4.48	2.767987131
4.49	2.72160813
4.5	2.674592194
4.51	2.626961787
4.52	2.578739418
4.53	2.529947637
4.54	2.480609025
4.55	2.430746187
4.56	2.380381738
4.57	2.329538301
4.58	2.278238495
4.59	2.226504928
4.6	2.174360188
4.61	2.121826835
4.62	2.068927393
4.63	2.015684342
4.64	1.96212011
4.65	1.908257064
4.66	1.854117506
4.67	1.799723659
4.68	1.745097666
4.69	1.690261577
4.7	1.635237346
4.71	1.580046821
4.72	1.524711737
4.73	1.469253709
4.74	1.413694226
4.75	1.358054644
4.76	1.302356176
4.77	1.24661989
4.78	1.190866699
4.79	1.135117356
4.8	1.079392447
4.81	1.023712386
4.82	0.9680974061
4.83	0.912567556
4.84	0.8571426932
4.85	0.8018424778
4.86	0.7466863675
4.87	0.6916936113
4.88	0.6368832449
4.89	0.5822740843
4.9	0.5278847217
4.91	0.4737335194
4.92	0.4198386057
4.93	0.3662178695
4.94	0.3128889557
4.95	0.2598692609
4.96	0.2071759284
4.97	0.1548258446
4.98	0.102835634
4.99	0.05122165595
5	9.944275286e-16
5.01	-0.05081351743
5.02	-0.1012033569
5.03	-0.1511542596
5.04	-0.2006512503
5.05	-0.2496796414
5.06	-0.2982250353
5.07	-0.3462733279
5.08	-0.3938107112
5.09	-0.4408236762
5.1	-0.4872990156
5.11	-0.5332238259
5.12	-0.5785855104
5.13	-0.6233717806
5.14	-0.667570659
5.15	-0.7111704806
5.16	-0.754159895
5.17	-0.7965278679
5.18	-0.8382636828
5.19	-0.8793569424
5.2	-0.9197975696
5.21	-0.9595758094
5.22	-0.9986822291
5.23	-1.03710772
5.24	-1.074843497
5.25	-1.111881101
5.26	-1.148212398
5.27	-1.183829581
5.28	-1.218725167
5.29	-1.252892001
5.3	-1.286323256
5.31	-1.319012428
5.32	-1.350953343
5.33	-1.382140149
5.34	-1.412567322
5.35	-1.442229664
5.36	-1.471122298
5.37	-1.499240673
5.38	-1.526580559
5.39	-1.553138049
5.4	-1.578909557
5.41	-1.603891813
5.42	-1.628081869
5.43	-1.65147709
5.44	-1.674075159
5.45	-1.695874069
5.46	-1.716872128
5.47	-1.73706795
5.48	-1.75646046
5.49	-1.775048887
5.5	-1.792832763
5.51	-1.809811923
5.52	-1.825986499
5.53	-1.841356922
5.54	-1.855923914
5.55	-1.86968849
5.56	-1.882651953
5.57	-1.894815893
5.58	-1.906182182
5.59	-1.916752973
5.6	-1.926530695
5.61	-1.93551805
5.62	-1.943718014
5.63	-1.951133827
5.64	-1.957768996
5.65	-1.963627287
5.66	-1.968712723
5.67	-1.973029583
5.68	-1.976582393
5.69	-1.979375928
5.7	-1.981415205
5.71	-1.98270548
5.72	-1.983252244
5.73	-1.983061218
5.74	-1.982138352
5.75	-1.98048982
5.76	-1.978122012
5.77	-1.975041535
5.78	-1.971255208
5.79	-1.966770055
5.8	-1.961593303
5.81	-1.955732376
5.82	-1.949194895
5.83	-1.941988667
5.84	-1.934121686
5.85	-1.925602127
5.86	-1.91643834
5.87	-1.906638846
5.88	-1.896212336
5.89	-1.88516766
5.9	-1.873513831
5.91	-1.86126001
5.92	-1.84841551
5.93	-1.834989788
5.94	-1.820992441
5.95	-1.806433198
5.96	-1.791321923
5.97	-1.775668601
5.98	-1.759483341
5.99	-1.742776366
6	-1.725558012
6.01	-1.707838722
6.02	-1.68962904
6.03	-1.670939607
6.04	-1.651781158
6.05	-1.632164515
6.06	-1.612100583
6.07	-1.591600347
6.08	-1.570674863
6.09	-1.54933526
6.1	-1.527592727
6.11	-1.505458518
6.12	-1.482943938
6.13	-1.460060343
6.14	-1.436819138
6.15	-1.413231766
6.16	-1.389309709
6.17	-1.36506448
6.18	-1.34050762
6.19	-1.315650695
6.2	-1.290505286
6.21	-1.265082993
6.22	-1.239395422
6.23	-1.213454188
6.24	-1.187270904
6.25	-1.160857183
6.26	-1.134224629
6.27	-1.107384833
6.28	-1.080349375
6.29	-1.053129809
6.3	-1.025737671
6.31	-0.9981844641
6.32	-0.970481662
6.33	-0.9426407013
6.34	-0.914672979
6.35	-0.8865898479
6.36	-0.858402613
6.37	-0.830122528
6.38	-0.8017607909
6.39	-0.773328541
6.4	-0.7448368547
6.41	-0.7162967422
6.42	-0.6877191438
6.43	-0.6591149267
6.44	-0.6304948811
6.45	-0.6018697173
6.46	-0.5732500619
6.47	-0.544646455
6.48	-0.5160693467
6.49	-0.4875290941
6.5	-0.459035958
6.51	-0.4306001002
6.52	-0.4022315802
6.53	-0.3739403525
6.54	-0.3457362636
6.55	-0.3176290496
6.56	-0.2896283329
6.57	-0.2617436199
6.58	-0.2339842985
6.59	-0.2063596353
6.6	-0.1788787733
6.61	-0.1515507294
6.62	-0.1243843923
6.63	-0.09738851987
6.64	-0.07057173732
6.65	-0.04394253482
6.66	-0.01750926556
6.67	0.008719856316
6.68	0.0347367576
6.69	0.06053350789
6.7	0.0861023214
6.71	0.1114355587
6.72	0.1365257282
6.73	0.1613654882
6.74	0.1859476477
6.75	0.2102651687
6.76	0.2343111667
6.77	0.2580789129
6.78	0.2815618347
6.79	0.3047535174
6.8	0.3276477049
6.81	0.3502383012
6.82	0.372519371
6.83	0.3944851408
6.84	0.4161299998
6.85	0.4374485003
6.86	0.4584353591
6.87	0.4790854574
6.88	0.4993938419
6.89	0.5193557252
6.9	0.5389664859
6.91	0.5582216696
6.92	0.5771169886
6.93	0.5956483228
6.94	0.6138117192
6.95	0.6316033925
6.96	0.6490197251
6.97	0.6660572669
6.98	0.6827127355
6.99	0.6989830158
7	0.71486516
7.01	0.7303563876
7.02	0.7454540844
7.03	0.7601558028
7.04	0.7744592611
7.05	0.7883623431
7.06	0.8018630975
7.07	0.8149597374
7.08	0.8276506393
7.09	0.839934343
7.1	0.8518095505
7.11	0.863275125
7.12	0.8743300904
7.13	0.8849736303
7.14	0.8952050867
7.15	0.9050239595
7.16	0.914429905
7.17	0.9234227351
7.18	0.9320024157
7.19	0.940169066
7.2	0.947922957
7.21	0.9552645101
7.22	0.9621942958
7.23	0.9687130323
7.24	0.9748215843
7.25	0.980520961
7.26	0.9858123153
7.27	0.9906969412
7.28	0.9951762735
7.29	0.9992518848
7.3	1.002925485
7.31	1.006198919
7.32	1.009074164
7.33	1.01155333
7.34	1.013638656
7.35	1.01533251
7.36	1.016637383
7.37	1.017555894
7.38	1.01809078
7.39	1.018244901
7.4	1.018021234
7.41	1.017422871
7.42	1.01645302
7.43	1.015114999
7.44	1.013412237
7.45	1.011348269
7.46	1.008926738
7.47	1.006151387
7.48	1.003026063
7.49	0.9995547093
7.5	0.9957413674
7.51	0.9915901723
7.52	0.9871053513
7.53	0.9822912213
7.54	0.9771521866
7.55	0.9716927366
7.56	0.9659174432
7.57	0.959830959
7.58	0.9534380145
7.59	0.9467434156
7.6	0.9397520418
7.61	0.9324688433
7.62	0.9248988388
7.63	0.9170471131
7.64	0.9089188146
7.65	0.9005191531
7.66	0.8918533971
7.67	0.8829268715
7.68	0.8737449553
7.69	0.8643130792
7.7	0.8546367228
7.71	0.8447214127
7.72	0.8345727195
7.73	0.8241962562
7.74	0.8135976748
7.75	0.8027826648
7.76	0.7917569503
7.77	0.7805262875
7.78	0.7690964628
7.79	0.75747329
7.8	0.7456626082
7.81	0.7336702791
7.82	0.721502185
7.83	0.7091642265
7.84	0.6966623196
7.85	0.6840023942
7.86	0.6711903912
7.87	0.6582322603
7.88	0.6451339581
7.89	0.6319014453
7.9	0.6185406849
7.91	0.6050576397
7.92	0.5914582704
7.93	0.577748533
7.94	0.5639343771
7.95	0.5500217432
7.96	0.5360165611
7.97	0.5219247477
7.98	0.5077522044
7.99	0.4935048157
8	0.479188447
8.01	0.4648089421
8.02	0.450372122
8.03	0.4358837822
8.04	0.4213496912
8.05	0.4067755885
8.06	0.3921671825
8.07	0.377530149
8.08	0.3628701291
8.09	0.3481927274
8.1	0.3335035102
8.11	0.318808004
8.12	0.3041116935
8.13	0.28942002
8.14	0.2747383797
8.15	0.2600721221
8.16	0.2454265485
8.17	0.23080691
8.18	0.2162184067
8.19	0.2016661855
8.2	0.1871553388
8.21	0.1726909033
8.22	0.1582778583
8.23	0.1439211244
8.24	0.1296255623
8.25	0.1153959712
8.26	0.1012370878
8.27	0.08715358481
8.28	0.07315006982
8.29	0.05923108417
8.3	0.04540110177
8.31	0.03166452792
8.32	0.0180256983
8.33	0.004488877903
8.34	-0.008941740003
8.35	-0.02226203483
8.36	-0.03546795962
8.37	-0.04855554197
8.38	-0.06152088487
8.39	-0.07436016758
8.4	-0.08706964644
8.41	-0.0996456556
8.42	-0.1120846078
8.43	-0.124382995
8.44	-0.1365373891
8.45	-0.1485444427
8.46	-0.1604008894
8.47	-0.1721035446
8.48	-0.1836493059
8.49	-0.1950351537
8.5	-0.2062581515
8.51	-0.2173154466
8.52	-0.2282042701
8.53	-0.2389219376
8.54	-0.2494658494
8.55	-0.2598334907
8.56	-0.2700224319
8.57	-0.2800303289
8.58	-0.2898549233
8.59	-0.2994940424
8.6	-0.3089455993
8.61	-0.3182075933
8.62	-0.3272781097
8.63	-0.3361553196
8.64	-0.3448374806
8.65	-0.353322936
8.66	-0.3616101151
8.67	-0.3696975332
8.68	-0.377583791
8.69	-0.3852675751
8.7	-0.3927476571
8.71	-0.400022894
8.72	-0.4070922275
8.73	-0.4139546839
8.74	-0.4206093739
8.75	-0.4270554918
8.76	-0.4332923159
8.77	-0.4393192073
8.78	-0.4451356099
8.79	-0.45074105
8.8	-0.4561351355
8.81	-0.4613175558
8.82	-0.4662880808
8.83	-0.4710465609
8.84	-0.4755929258
8.85	-0.4799271845
8.86	-0.4840494241
8.87	-0.4879598095
8.88	-0.4916585827
8.89	-0.4951460621
8.9	-0.4984226414
8.91	-0.5014887895
8.92	-0.5043450491
8.93	-0.5069920365
8.94	-0.5094304401
8.95	-0.5116610204
8.96	-0.5136846082
8.97	-0.5155021047
8.98	-0.5171144798
8.99	-0.5185227717
9	-0.5197280857
9.01	-0.5207315934
9.02	-0.5215345317
9.03	-0.522138202
9.04	-0.5225439685
9.05	-0.5227532584
9.06	-0.5227675596
9.07	-0.5225884206
9.08	-0.522217449
9.09	-0.5216563105
9.1	-0.5209067278
9.11	-0.5199704799
9.12	-0.5188494001
9.13	-0.5175453759
9.14	-0.5160603473
9.15	-0.5143963057
9.16	-0.5125552928
9.17	-0.5105393997
9.18	-0.5083507652
9.19	-0.5059915752
9.2	-0.5034640611
9.21	-0.5007704989
9.22	-0.4979132078
9.23	-0.494894549
9.24	-0.4917169247
9.25	-0.4883827767
9.26	-0.4848945851
9.27	-0.4812548673
9.28	-0.4774661768
9.29	-0.4735311017
9.3	-0.4694522637
9.31	-0.4652323165
9.32	-0.4608739454
9.33	-0.4563798648
9.34	-0.4517528183
9.35	-0.4469955764
9.36	-0.4421109358
9.37	-0.437101718
9.38	-0.4319707682
9.39	-0.4267209539
9.4	-0.4213551635
9.41	-0.4158763055
9.42	-0.4102873071
9.43	-0.4045911127
9.44	-0.398790683
9.45	-0.3928889936
9.46	-0.3868890339
9.47	-0.3807938057
9.48	-0.3746063224
9.49	-0.3683296071
9.5	-0.3619666922
9.51	-0.3555206175
9.52	-0.3489944295
9.53	-0.34239118
9.54	-0.3357139251
9.55	-0.3289657237
9.56	-0.3221496367
9.57	-0.3152687258
9.58	-0.308326052
9.59	-0.3013246751
9.6	-0.2942676519
9.61	-0.2871580357
9.62	-0.2799988748
9.63	-0.2727932114
9.64	-0.2655440808
9.65	-0.2582545103
9.66	-0.2509275178
9.67	-0.2435661111
9.68	-0.2361732869
9.69	-0.2287520293
9.7	-0.2213053094
9.71	-0.2138360841
9.72	-0.2063472948
9.73	-0.1988418669
9.74	-0.1913227085
9.75	-0.1837927099
9.76	-0.1762547419
9.77	-0.1687116558
9.78	-0.1611662819
9.79	-0.1536214288
9.8	-0.1460798826
9.81	-0.1385444057
9.82	-0.1310177366
9.83	-0.1235025887
9.84	-0.1160016492
9.85	-0.1085175788
9.86	-0.101053011
9.87	-0.0936105508
9.88	-0.08619277433
9.89	-0.07880222812
9.9	-0.07144142832
9.91	-0.06411286003
9.92	-0.05681897662
9.93	-0.0495621991
9.94	-0.04234491545
9.95	-0.03516948003
9.96	-0.02803821295
9.97	-0.02095339953
9.98	-0.01391728966
9.99	-0.006932097315
10	-2.691622625e-16
10.01	0.006876861773
10.02	0.01369638497
10.03	0.02045650453
10.04	0.0271551938
10.05	0.03379046499
10.06	0.04036036962
10.07	0.04686299891
10.08	0.05329648414
10.09	0.05965899708
10.1	0.06594875029
10.11	0.07216399751
10.12	0.07830303393
10.13	0.08436419649
10.14	0.09034586421
10.15	0.09624645842
10.16	0.102064443
10.17	0.1077983246
10.18	0.1134466529
10.19	0.1190080209
10.2	0.1244810646
10.21	0.129864464
10.22	0.1351569423
10.23	0.140357267
10.24	0.1454642491
10.25	0.1504767438
10.26	0.1553936502
10.27	0.1602139116
10.28	0.1649365156
10.29	0.1695604939
10.3	0.1740849222
10.31	0.1785089206
10.32	0.1828316533
10.33	0.1870523285
10.34	0.1911701987
10.35	0.19518456
10.36	0.1990947528
10.37	0.2029001611
10.38	0.2066002123
10.39	0.2101943778
10.4	0.2136821721
10.41	0.2170631529
10.42	0.2203369209
10.43	0.2235031198
10.44	0.2265614358
10.45	0.2295115975
10.46	0.2323533757
10.47	0.235086583
10.48	0.2377110738
10.49	0.2402267438
10.5	0.2426335298
10.51	0.2449314092
10.52	0.2471204001
10.53	0.2492005606
10.54	0.2511719885
10.55	0.2530348213
10.56	0.2547892353
10.57	0.2564354456
10.58	0.2579737056
10.59	0.2594043065
10.6	0.2607275772
10.61	0.2619438835
10.62	0.2630536279
10.63	0.2640572491
