temps	angle
0	0
0.01	0.844731311
0.02	1.6820457
0.03	2.511322257
0.04	3.331951548
0.05	4.143336018
0.06	4.944890382
0.07	5.736042
0.08	6.516231244
0.09	7.28491185
0.1	8.041551249
0.11	8.785630899
0.12	9.516646587
0.13	10.23410873
0.14	10.93754265
0.15	11.62648884
0.16	12.30050323
0.17	12.95915742
0.18	13.60203888
0.19	14.22875118
0.2	14.8389142
0.21	15.43216426
0.22	16.00815434
0.23	16.56655418
0.24	17.10705045
0.25	17.62934686
0.26	18.13316425
0.27	18.61824069
0.28	19.08433159
0.29	19.53120967
0.3	19.95866512
0.31	20.36650555
0.32	20.75455602
0.33	21.12265908
0.34	21.47067473
0.35	21.79848038
0.36	22.10597086
0.37	22.39305832
0.38	22.65967217
0.39	22.90575902
0.4	23.13128259
0.41	23.33622356
0.42	23.5205795
0.43	23.68436473
0.44	23.82761012
0.45	23.95036301
0.46	24.05268699
0.47	24.13466174
0.48	24.19638284
0.49	24.23796154
0.5	24.25952457
0.51	24.2612139
0.52	24.24318652
0.53	24.20561416
0.54	24.1486831
0.55	24.0725938
0.56	23.97756071
0.57	23.86381197
0.58	23.73158908
0.59	23.58114663
0.6	23.41275196
0.61	23.22668489
0.62	23.02323733
0.63	22.80271301
0.64	22.56542708
0.65	22.31170581
0.66	22.04188622
0.67	21.7563157
0.68	21.45535168
0.69	21.13936125
0.7	20.80872074
0.71	20.46381543
0.72	20.10503908
0.73	19.73279359
0.74	19.3474886
0.75	18.94954108
0.76	18.53937496
0.77	18.1174207
0.78	17.68411491
0.79	17.23989994
0.8	16.78522348
0.81	16.32053814
0.82	15.84630106
0.83	15.36297349
0.84	14.87102039
0.85	14.37091002
0.86	13.86311352
0.87	13.34810455
0.88	12.82635882
0.89	12.29835373
0.9	11.76456798
0.91	11.22548112
0.92	10.68157321
0.93	10.13332438
0.94	9.581214463
0.95	9.02572262
0.96	8.467326926
0.97	7.906504009
0.98	7.34372867
0.99	6.779473513
1	6.214208577
1.01	5.648400977
1.02	5.082514546
1.03	4.517009485
1.04	3.952342019
1.05	3.388964057
1.06	2.827322861
1.07	2.267860716
1.08	1.711014617
1.09	1.157215948
1.1	0.6068901858
1.11	0.06045659216
1.12	-0.4816720707
1.13	-1.019089826
1.14	-1.551397758
1.15	-2.078204278
1.16	-2.599125388
1.17	-3.113784928
1.18	-3.621814819
1.19	-4.122855301
1.2	-4.616555157
1.21	-5.102571928
1.22	-5.580572127
1.23	-6.050231431
1.24	-6.511234877
1.25	-6.963277041
1.26	-7.40606221
1.27	-7.839304547
1.28	-8.262728239
1.29	-8.676067649
1.3	-9.079067443
1.31	-9.47148272
1.32	-9.853079126
1.33	-10.22363296
1.34	-10.58293128
1.35	-10.93077196
1.36	-11.26696381
1.37	-11.59132663
1.38	-11.90369123
1.39	-12.20389954
1.4	-12.49180462
1.41	-12.76727068
1.42	-13.03017312
1.43	-13.28039855
1.44	-13.51784475
1.45	-13.74242071
1.46	-13.95404661
1.47	-14.15265376
1.48	-14.3381846
1.49	-14.51059265
1.5	-14.66984245
1.51	-14.81590952
1.52	-14.94878028
1.53	-15.06845196
1.54	-15.17493256
1.55	-15.26824069
1.56	-15.34840554
1.57	-15.41546674
1.58	-15.46947423
1.59	-15.51048816
1.6	-15.53857877
1.61	-15.5538262
1.62	-15.55632042
1.63	-15.54616101
1.64	-15.52345705
1.65	-15.48832695
1.66	-15.44089823
1.67	-15.38130741
1.68	-15.30969981
1.69	-15.22622931
1.7	-15.13105825
1.71	-15.02435713
1.72	-14.90630449
1.73	-14.77708665
1.74	-14.63689752
1.75	-14.48593837
1.76	-14.32441761
1.77	-14.15255058
1.78	-13.9705593
1.79	-13.77867223
1.8	-13.57712406
1.81	-13.36615546
1.82	-13.14601283
1.83	-12.91694804
1.84	-12.67921822
1.85	-12.43308549
1.86	-12.17881668
1.87	-11.91668313
1.88	-11.6469604
1.89	-11.36992799
1.9	-11.08586914
1.91	-10.79507054
1.92	-10.49782204
1.93	-10.19441646
1.94	-9.885149247
1.95	-9.570318279
1.96	-9.250223571
1.97	-8.925167024
1.98	-8.595452162
1.99	-8.261383875
2	-7.923268156
2.01	-7.581411851
2.02	-7.236122397
2.03	-6.887707568
2.04	-6.536475227
2.05	-6.182733069
2.06	-5.826788377
2.07	-5.468947776
2.08	-5.109516983
2.09	-4.748800576
2.1	-4.387101746
2.11	-4.024722067
2.12	-3.661961264
2.13	-3.299116982
2.14	-2.936484564
2.15	-2.574356825
2.16	-2.21302384
2.17	-1.852772724
2.18	-1.493887427
2.19	-1.136648529
2.2	-0.7813330355
2.21	-0.4282141819
2.22	-0.07756124391
2.23	0.2703606514
2.24	0.6152907074
2.25	0.9569726356
2.26	1.295154827
2.27	1.629590521
2.28	1.960037963
2.29	2.286260567
2.3	2.608027061
2.31	2.925111637
2.32	3.237294085
2.33	3.544359935
2.34	3.846100577
2.35	4.142313392
2.36	4.432801863
2.37	4.717375686
2.38	4.99585088
2.39	5.268049882
2.4	5.533801638
2.41	5.792941698
2.42	6.045312287
2.43	6.290762388
2.44	6.529147807
2.45	6.760331236
2.46	6.98418231
2.47	7.200577658
2.48	7.409400946
2.49	7.610542918
2.5	7.803901425
2.51	7.989381456
2.52	8.166895152
2.53	8.336361825
2.54	8.497707967
2.55	8.650867248
2.56	8.795780516
2.57	8.932395789
2.58	9.060668235
2.59	9.180560158
2.6	9.292040967
2.61	9.395087144
2.62	9.489682212
2.63	9.575816685
2.64	9.653488026
2.65	9.722700592
2.66	9.783465571
2.67	9.835800927
2.68	9.879731325
2.69	9.915288058
2.7	9.942508973
2.71	9.961438382
2.72	9.97212698
2.73	9.974631749
2.74	9.969015866
2.75	9.955348597
2.76	9.933705196
2.77	9.904166794
2.78	9.866820289
2.79	9.821758226
2.8	9.769078679
2.81	9.708885129
2.82	9.641286333
2.83	9.566396194
2.84	9.484333632
2.85	9.395222443
2.86	9.29919116
2.87	9.196372913
2.88	9.086905283
2.89	8.970930155
2.9	8.848593568
2.91	8.720045563
2.92	8.585440032
2.93	8.444934559
2.94	8.298690263
2.95	8.146871641
2.96	7.989646406
2.97	7.827185327
2.98	7.659662061
2.99	7.487252997
3	7.310137081
3.01	7.128495661
3.02	6.942512313
3.03	6.752372675
3.04	6.558264283
3.05	6.360376403
3.06	6.158899859
3.07	5.954026873
3.08	5.745950889
3.09	5.534866416
3.1	5.320968852
3.11	5.104454325
3.12	4.885519526
3.13	4.664361542
3.14	4.441177697
3.15	4.216165388
3.16	3.989521923
3.17	3.761444363
3.18	3.532129364
3.19	3.301773019
3.2	3.070570706
3.21	2.83871693
3.22	2.606405179
3.23	2.373827768
3.24	2.141175698
3.25	1.908638508
3.26	1.676404131
3.27	1.44465876
3.28	1.213586706
3.29	0.9833702632
3.3	0.7541895809
3.31	0.52622253
3.32	0.299644579
3.33	0.07462867015
3.34	-0.1486549009
3.35	-0.3700386024
3.36	-0.5893577804
3.37	-0.8064507695
3.38	-1.021159001
3.39	-1.233327105
3.4	-1.442803014
3.41	-1.649438058
3.42	-1.853087058
3.43	-2.053608419
3.44	-2.250864213
3.45	-2.444720261
3.46	-2.635046219
3.47	-2.821715643
3.48	-3.004606071
3.49	-3.183599082
3.5	-3.358580367
3.51	-3.529439783
3.52	-3.696071413
3.53	-3.858373619
3.54	-4.016249088
3.55	-4.169604876
3.56	-4.318352453
3.57	-4.462407733
3.58	-4.601691115
3.59	-4.736127506
3.6	-4.865646346
3.61	-4.990181632
3.62	-5.109671937
3.63	-5.224060416
3.64	-5.333294823
3.65	-5.437327515
3.66	-5.536115449
3.67	-5.62962019
3.68	-5.717807894
3.69	-5.800649311
3.7	-5.87811976
3.71	-5.950199122
3.72	-6.016871816
3.73	-6.078126777
3.74	-6.133957425
3.75	-6.184361641
3.76	-6.229341729
3.77	-6.268904377
3.78	-6.303060624
3.79	-6.331825808
3.8	-6.355219525
3.81	-6.373265577
3.82	-6.385991917
3.83	-6.393430599
3.84	-6.395617715
3.85	-6.392593332
3.86	-6.384401433
3.87	-6.371089846
3.88	-6.352710175
3.89	-6.32931773
3.9	-6.300971452
3.91	-6.267733833
3.92	-6.229670842
3.93	-6.186851839
3.94	-6.139349495
3.95	-6.087239706
3.96	-6.030601504
3.97	-5.96951697
3.98	-5.90407114
3.99	-5.834351917
4	-5.760449972
4.01	-5.682458651
4.02	-5.600473879
4.03	-5.514594057
4.04	-5.424919967
4.05	-5.33155467
4.06	-5.234603401
4.07	-5.134173471
4.08	-5.030374161
4.09	-4.923316616
4.1	-4.813113743
4.11	-4.699880104
4.12	-4.583731807
4.13	-4.464786406
4.14	-4.343162786
4.15	-4.218981062
4.16	-4.092362468
4.17	-3.963429253
4.18	-3.832304571
4.19	-3.699112372
4.2	-3.563977302
4.21	-3.427024587
4.22	-3.288379935
4.23	-3.148169424
4.24	-3.006519401
4.25	-2.863556373
4.26	-2.719406908
4.27	-2.574197527
4.28	-2.428054605
4.29	-2.281104266
4.3	-2.133472288
4.31	-1.985283998
4.32	-1.836664176
4.33	-1.68773696
4.34	-1.538625748
4.35	-1.389453103
4.36	-1.240340662
4.37	-1.091409045
4.38	-0.9427777613
4.39	-0.7945651267
4.4	-0.646888173
4.41	-0.4998625648
4.42	-0.3536025159
4.43	-0.2082207085
4.44	-0.06382821344
4.45	0.0794655867
4.46	0.2215530733
4.47	0.3623284648
4.48	0.5016878884
4.49	0.6395294485
4.5	0.7757532945
4.51	0.910261685
4.52	1.042959051
4.53	1.173752054
4.54	1.302549649
4.55	1.429263135
4.56	1.55380621
4.57	1.676095022
4.58	1.796048221
4.59	1.913586998
4.6	2.028635135
4.61	2.141119044
4.62	2.250967806
4.63	2.358113205
4.64	2.462489767
4.65	2.564034786
4.66	2.662688358
4.67	2.758393401
4.68	2.851095684
4.69	2.940743849
4.7	3.027289424
4.71	3.110686845
4.72	3.190893467
4.73	3.267869576
4.74	3.3415784
4.75	3.41198611
4.76	3.47906183
4.77	3.542777636
4.78	3.603108553
4.79	3.660032558
4.8	3.713530566
4.81	3.763586429
4.82	3.810186922
4.83	3.853321733
4.84	3.892983444
4.85	3.929167521
4.86	3.961872286
4.87	3.991098902
4.88	4.016851349
4.89	4.039136393
4.9	4.057963566
4.91	4.073345129
4.92	4.085296046
4.93	4.093833947
4.94	4.098979094
4.95	4.10075434
4.96	4.099185097
4.97	4.094299288
4.98	4.086127307
4.99	4.074701976
5	4.060058497
5.01	4.042234404
5.02	4.021269516
5.03	3.997205886
5.04	3.970087748
5.05	3.939961463
5.06	3.906875467
5.07	3.870880213
5.08	3.832028116
5.09	3.790373492
5.1	3.7459725
5.11	3.698883084
5.12	3.649164908
5.13	3.596879295
5.14	3.542089166
5.15	3.484858973
5.16	3.425254639
5.17	3.363343485
5.18	3.299194174
5.19	3.232876636
5.2	3.164462007
5.21	3.094022558
5.22	3.021631629
5.23	2.94736356
5.24	2.871293624
5.25	2.793497957
5.26	2.71405349
5.27	2.63303788
5.28	2.55052944
5.29	2.466607075
5.3	2.381350204
5.31	2.294838703
5.32	2.207152826
5.33	2.118373144
5.34	2.028580471
5.35	1.937855804
5.36	1.846280248
5.37	1.753934956
5.38	1.660901055
5.39	1.56725959
5.4	1.47309145
5.41	1.378477308
5.42	1.283497558
5.43	1.188232248
5.44	1.092761021
5.45	0.997163053
5.46	0.9015169924
5.47	0.805900899
5.48	0.7103921867
5.49	0.6150675654
5.5	0.5200029841
5.51	0.4252735756
5.52	0.3309536019
5.53	0.2371164005
5.54	0.1438343326
5.55	0.05117873206
5.56	-0.04078014454
5.57	-0.1319731662
5.58	-0.2223323748
5.59	-0.3117910308
5.6	-0.4002836578
5.61	-0.4877460858
5.62	-0.5741154927
5.63	-0.6593304445
5.64	-0.7433309345
5.65	-0.8260584203
5.66	-0.9074558599
5.67	-0.9874677459
5.68	-1.066040139
5.69	-1.143120697
5.7	-1.218658708
5.71	-1.292605118
5.72	-1.364912553
5.73	-1.43553535
5.74	-1.504429578
5.75	-1.571553058
5.76	-1.636865389
5.77	-1.700327958
5.78	-1.761903965
5.79	-1.821558435
5.8	-1.879258231
5.81	-1.934972068
5.82	-1.988670525
5.83	-2.04032605
5.84	-2.08991297
5.85	-2.137407496
5.86	-2.18278773
5.87	-2.226033664
5.88	-2.267127182
5.89	-2.306052062
5.9	-2.342793973
5.91	-2.377340468
5.92	-2.409680985
5.93	-2.439806836
5.94	-2.467711202
5.95	-2.493389123
5.96	-2.516837484
5.97	-2.538055008
5.98	-2.55704224
5.99	-2.573801529
6	-2.588337019
6.01	-2.600654623
6.02	-2.61076201
6.03	-2.618668584
6.04	-2.624385459
6.05	-2.62792544
6.06	-2.629302997
6.07	-2.628534244
6.08	-2.625636905
6.09	-2.620630294
6.1	-2.613535285
6.11	-2.60437428
6.12	-2.593171181
6.13	-2.579951358
6.14	-2.564741617
6.15	-2.547570165
6.16	-2.528466579
6.17	-2.50746177
6.18	-2.484587944
6.19	-2.459878572
6.2	-2.433368345
6.21	-2.405093143
6.22	-2.375089994
6.23	-2.34339703
6.24	-2.310053457
6.25	-2.275099505
6.26	-2.238576393
6.27	-2.200526286
6.28	-2.160992253
6.29	-2.120018224
6.3	-2.07764895
6.31	-2.033929958
6.32	-1.988907507
6.33	-1.942628549
6.34	-1.895140678
6.35	-1.846492095
6.36	-1.796731557
6.37	-1.745908337
6.38	-1.694072176
6.39	-1.641273243
6.4	-1.58756209
6.41	-1.532989606
6.42	-1.477606974
6.43	-1.421465627
6.44	-1.364617204
6.45	-1.307113508
6.46	-1.249006461
6.47	-1.190348061
6.48	-1.131190339
6.49	-1.071585317
6.5	-1.011584967
6.51	-0.9512411663
6.52	-0.8906056592
6.53	-0.8297300137
6.54	-0.7686655821
6.55	-0.7074634609
6.56	-0.6461744514
6.57	-0.5848490205
6.58	-0.5235372626
6.59	-0.4622888618
6.6	-0.401153055
6.61	-0.3401785952
6.62	-0.2794137159
6.63	-0.2189060962
6.64	-0.1587028263
6.65	-0.0988503738
6.66	-0.03939455144
6.67	0.01961951534
6.68	0.07814741943
6.69	0.1361455023
6.7	0.1935708838
6.71	0.2503814903
6.72	0.3065360827
6.73	0.3619942835
6.74	0.4167166024
6.75	0.4706644612
6.76	0.5238002184
6.77	0.5760871915
6.78	0.6274896801
6.79	0.6779729863
6.8	0.7275034352
6.81	0.7760483941
6.82	0.8235762907
6.83	0.8700566302
6.84	0.9154600116
6.85	0.9597581428
6.86	1.002923855
6.87	1.044931114
6.88	1.085755036
6.89	1.125371896
6.9	1.163759138
6.91	1.200895383
6.92	1.236760441
6.93	1.271335313
6.94	1.304602201
6.95	1.336544509
6.96	1.36714685
6.97	1.396395049
6.98	1.424276141
6.99	1.450778378
7	1.475891223
7.01	1.499605351
7.02	1.521912649
7.03	1.54280621
7.04	1.562280331
7.05	1.580330505
7.06	1.596953422
7.07	1.612146952
7.08	1.625910146
7.09	1.638243224
7.1	1.649147566
7.11	1.658625698
7.12	1.666681289
7.13	1.673319131
7.14	1.67854513
7.15	1.682366292
7.16	1.684790706
7.17	1.685827534
7.18	1.68548699
7.19	1.683780325
7.2	1.680719811
7.21	1.676318721
7.22	1.670591311
7.23	1.663552801
7.24	1.655219354
7.25	1.645608055
7.26	1.634736893
7.27	1.622624735
7.28	1.609291306
7.29	1.594757165
7.3	1.579043684
7.31	1.562173021
7.32	1.544168098
7.33	1.525052575
7.34	1.504850826
7.35	1.483587912
7.36	1.461289556
7.37	1.437982119
7.38	1.41369257
7.39	1.388448461
7.4	1.362277898
7.41	1.335209518
7.42	1.307272459
7.43	1.278496329
7.44	1.248911185
7.45	1.2185475
7.46	1.187436137
7.47	1.15560832
7.48	1.123095606
7.49	1.089929856
7.5	1.05614321
7.51	1.021768053
7.52	0.9868369922
7.53	0.9513828255
7.54	0.9154385144
7.55	0.8790371558
7.56	0.8422119541
7.57	0.8049961934
7.58	0.7674232098
7.59	0.7295263637
7.6	0.6913390129
7.61	0.6528944852
7.62	0.6142260518
7.63	0.5753669006
7.64	0.5363501098
7.65	0.4972086223
7.66	0.4579752196
7.67	0.4186824967
7.68	0.3793628371
7.69	0.3400483881
7.7	0.3007710365
7.71	0.2615623852
7.72	0.2224537291
7.73	0.1834760329
7.74	0.1446599079
7.75	0.1060355905
7.76	0.0676329203
7.77	0.02948131915
7.78	-0.008390229452
7.79	-0.04595320037
7.8	-0.08317954638
7.81	-0.1200417171
7.82	-0.1565126775
7.83	-0.1925659256
7.84	-0.2281755098
7.85	-0.2633160457
7.86	-0.297962732
7.87	-0.3320913662
7.88	-0.3656783593
7.89	-0.3987007501
7.9	-0.431136219
7.91	-0.4629631007
7.92	-0.4941603971
7.93	-0.5247077884
7.94	-0.5545856447
7.95	-0.5837750363
7.96	-0.6122577433
7.97	-0.6400162649
7.98	-0.667033828
7.99	-0.693294395
8	-0.7187826705
8.01	-0.7434841085
8.02	-0.7673849178
8.03	-0.7904720674
8.04	-0.8127332908
8.05	-0.83415709
8.06	-0.8547327388
8.07	-0.8744502852
8.08	-0.8933005535
8.09	-0.9112751453
8.1	-0.9283664405
8.11	-0.9445675968
8.12	-0.9598725495
8.13	-0.9742760101
8.14	-0.9877734642
8.15	-1.000361169
8.16	-1.012036151
8.17	-1.022796202
8.18	-1.032639872
8.19	-1.041566469
8.2	-1.049576052
8.21	-1.056669421
8.22	-1.062848117
8.23	-1.068114411
8.24	-1.072471295
8.25	-1.075922476
8.26	-1.078472371
8.27	-1.080126087
8.28	-1.080889425
8.29	-1.080768857
8.3	-1.079771526
8.31	-1.077905227
8.32	-1.0751784
8.33	-1.071600117
8.34	-1.067180067
8.35	-1.061928548
8.36	-1.05585645
8.37	-1.048975242
8.38	-1.041296961
8.39	-1.032834192
8.4	-1.02360006
8.41	-1.013608211
8.42	-1.002872796
8.43	-0.9914084592
8.44	-0.9792303188
8.45	-0.9663539529
8.46	-0.9527953822
8.47	-0.9385710539
8.48	-0.9236978249
8.49	-0.9081929446
8.5	-0.892074038
8.51	-0.8753590885
8.52	-0.85806642
8.53	-0.8402146797
8.54	-0.8218228203
8.55	-0.802910082
8.56	-0.783495975
8.57	-0.7636002609
8.58	-0.7432429351
8.59	-0.7224442085
8.6	-0.7012244896
8.61	-0.6796043659
8.62	-0.6576045864
8.63	-0.6352460427
8.64	-0.6125497517
8.65	-0.5895368368
8.66	-0.5662285104
8.67	-0.5426460557
8.68	-0.518810809
8.69	-0.494744142
8.7	-0.4704674438
8.71	-0.4460021039
8.72	-0.4213694942
8.73	-0.3965909527
8.74	-0.3716877654
8.75	-0.3466811501
8.76	-0.3215922396
8.77	-0.2964420651
8.78	-0.2712515399
8.79	-0.2460414435
8.8	-0.2208324058
8.81	-0.1956448912
8.82	-0.1704991839
8.83	-0.1454153723
8.84	-0.1204133345
8.85	-0.09551272379
8.86	-0.07073295457
8.87	-0.04609318833
8.88	-0.02161232019
8.89	0.002691034313
8.9	0.02679855215
8.91	0.05069221533
8.92	0.07435432311
8.93	0.09776750385
8.94	0.1209147265
8.95	0.1437793116
8.96	0.1663449424
8.97	0.1885956746
8.98	0.2105159469
8.99	0.2320905904
9	0.2533048376
9.01	0.2741443315
9.02	0.2945951338
9.03	0.3146437329
9.04	0.3342770515
9.05	0.3534824539
9.06	0.3722477524
9.07	0.3905612139
9.08	0.4084115658
9.09	0.4257880015
9.1	0.4426801852
9.11	0.4590782568
9.12	0.474972836
9.13	0.4903550264
9.14	0.5052164183
9.15	0.5195490921
9.16	0.5333456206
9.17	0.5465990715
9.18	0.5593030084
9.19	0.5714514926
9.2	0.583039084
9.21	0.5940608411
9.22	0.6045123214
9.23	0.6143895811
9.24	0.6236891739
9.25	0.6324081502
9.26	0.6405440555
9.27	0.6480949285
9.28	0.6550592982
9.29	0.6614361822
9.3	0.6672250827
9.31	0.6724259834
9.32	0.6770393457
9.33	0.6810661047
9.34	0.6845076641
9.35	0.6873658918
9.36	0.6896431147
9.37	0.6913421128
9.38	0.6924661137
9.39	0.6930187862
9.4	0.6930042338
9.41	0.6924269881
9.42	0.6912920013
9.43	0.6896046395
9.44	0.6873706743
9.45	0.6845962754
9.46	0.6812880022
9.47	0.6774527953
9.48	0.6730979682
9.49	0.6682311979
9.5	0.662860516
9.51	0.6569942994
9.52	0.6506412608
9.53	0.6438104386
9.54	0.6365111875
9.55	0.6287531677
9.56	0.6205463354
9.57	0.6119009318
9.58	0.6028274725
9.59	0.5933367372
9.6	0.5834397586
9.61	0.5731478111
9.62	0.5624724004
9.63	0.5514252518
9.64	0.5400182989
9.65	0.5282636727
9.66	0.5161736898
9.67	0.5037608409
9.68	0.4910377795
9.69	0.4780173101
9.7	0.464712377
9.71	0.4511360519
9.72	0.4373015232
9.73	0.4232220836
9.74	0.408911119
9.75	0.3943820965
9.76	0.3796485531
9.77	0.3647240839
9.78	0.3496223309
9.79	0.3343569713
9.8	0.3189417062
9.81	0.3033902491
9.82	0.2877163152
9.83	0.2719336096
9.84	0.2560558165
9.85	0.2400965885
9.86	0.2240695354
9.87	0.2079882138
9.88	0.191866116
9.89	0.1757166604
9.9	0.1595531802
9.91	0.1433889142
9.92	0.127236996
9.93	0.1111104448
9.94	0.09502215514
9.95	0.07898488807
9.96	0.06301126133
9.97	0.0471137405
9.98	0.03130463
9.99	0.01559606442
10	6.056150906e-16
10.01	-0.01547179365
10.02	-0.03080774163
10.03	-0.04599647158
10.04	-0.06102682135
10.05	-0.07588784631
10.06	-0.09056882658
10.07	-0.1050592739
10.08	-0.1193489384
10.09	-0.1334278148
10.1	-0.1472861488
10.11	-0.1609144429
10.12	-0.1743034623
10.13	-0.1874442398
10.14	-0.2003280814
10.15	-0.2129465711
10.16	-0.2252915754
10.17	-0.2373552476
10.18	-0.2491300323
10.19	-0.2606086685
10.2	-0.271784194
10.21	-0.2826499479
10.22	-0.2931995741
10.23	-0.3034270239
10.24	-0.3133265585
10.25	-0.3228927509
10.26	-0.3321204882
10.27	-0.3410049733
10.28	-0.3495417258
10.29	-0.3577265835
10.3	-0.3655557031
10.31	-0.373025561
10.32	-0.3801329534
10.33	-0.3868749961
10.34	-0.393249125
10.35	-0.399253095
10.36	-0.4048849796
10.37	-0.4101431697
10.38	-0.4150263727
10.39	-0.4195336107
10.4	-0.4236642189
10.41	-0.4274178437
10.42	-0.4307944407
10.43	-0.4337942716
10.44	-0.4364179025
10.45	-0.4386662001
10.46	-0.4405403292
10.47	-0.4420417492
10.48	-0.4431722106
10.49	-0.443933751
10.5	-0.4443286916
10.51	-0.4443596328
10.52	-0.4440294497
10.53	-0.4433412881
10.54	-0.4422985592
10.55	-0.4409049351
10.56	-0.4391643435
10.57	-0.4370809626
10.58	-0.4346592159
10.59	-0.4319037662
10.6	-0.4288195103
10.61	-0.425411573
10.62	-0.421685301
10.63	-0.4176462571
10.64	-0.4133002138
10.65	-0.4086531467
10.66	-0.4037112284
10.67	-0.398480822
10.68	-0.3929684737
