temps	angle
0	0
0.01	0.4697994782
0.02	0.9366179661
0.03	1.400303746
0.04	1.860707144
0.05	2.317680577
0.06	2.771078587
0.07	3.220757887
0.08	3.666577397
0.09	4.108398284
0.1	4.546083995
0.11	4.979500299
0.12	5.408515317
0.13	5.832999556
0.14	6.252825948
0.15	6.667869871
0.16	7.078009189
0.17	7.483124278
0.18	7.883098054
0.19	8.277815999
0.2	8.667166191
0.21	9.051039328
0.22	9.429328747
0.23	9.801930456
0.24	10.16874315
0.25	10.52966822
0.26	10.88460982
0.27	11.2334748
0.28	11.57617282
0.29	11.9126163
0.3	12.24272045
0.31	12.56640329
0.32	12.88358569
0.33	13.19419132
0.34	13.49814672
0.35	13.79538126
0.36	14.0858272
0.37	14.36941965
0.38	14.64609661
0.39	14.91579895
0.4	15.17847045
0.41	15.43405776
0.42	15.68251043
0.43	15.92378089
0.44	16.15782448
0.45	16.38459943
0.46	16.60406685
0.47	16.81619074
0.48	17.020938
0.49	17.21827837
0.5	17.4081845
0.51	17.59063189
0.52	17.76559888
0.53	17.93306667
0.54	18.0930193
0.55	18.24544364
0.56	18.39032935
0.57	18.5276689
0.58	18.65745757
0.59	18.77969336
0.6	18.89437709
0.61	19.00151225
0.62	19.1011051
0.63	19.19316459
0.64	19.27770234
0.65	19.35473264
0.66	19.42427243
0.67	19.48634126
0.68	19.54096127
0.69	19.58815719
0.7	19.62795628
0.71	19.66038834
0.72	19.68548566
0.73	19.703283
0.74	19.71381757
0.75	19.71712898
0.76	19.71325924
0.77	19.70225271
0.78	19.68415609
0.79	19.65901836
0.8	19.62689077
0.81	19.5878268
0.82	19.54188214
0.83	19.48911463
0.84	19.42958425
0.85	19.36335309
0.86	19.29048527
0.87	19.21104697
0.88	19.12510634
0.89	19.0327335
0.9	18.93400048
0.91	18.82898117
0.92	18.71775133
0.93	18.60038851
0.94	18.47697202
0.95	18.3475829
0.96	18.21230388
0.97	18.07121932
0.98	17.92441519
0.99	17.77197904
1	17.6139999
1.01	17.45056833
1.02	17.2817763
1.03	17.10771718
1.04	16.92848569
1.05	16.74417788
1.06	16.55489105
1.07	16.36072374
1.08	16.16177567
1.09	15.95814769
1.1	15.74994175
1.11	15.53726087
1.12	15.32020906
1.13	15.0988913
1.14	14.87341349
1.15	14.64388242
1.16	14.41040569
1.17	14.17309171
1.18	13.93204963
1.19	13.68738929
1.2	13.43922121
1.21	13.1876565
1.22	12.93280685
1.23	12.67478447
1.24	12.41370206
1.25	12.14967274
1.26	11.88281005
1.27	11.61322786
1.28	11.34104034
1.29	11.06636196
1.3	10.78930736
1.31	10.50999139
1.32	10.22852903
1.33	9.945035339
1.34	9.659625446
1.35	9.37241447
1.36	9.083517502
1.37	8.793049557
1.38	8.50112553
1.39	8.207860161
1.4	7.913367988
1.41	7.61776331
1.42	7.321160149
1.43	7.023672204
1.44	6.725412816
1.45	6.42649493
1.46	6.127031053
1.47	5.827133218
1.48	5.526912944
1.49	5.226481201
1.5	4.925948374
1.51	4.62542422
1.52	4.32501784
1.53	4.024837638
1.54	3.724991287
1.55	3.425585697
1.56	3.126726975
1.57	2.828520397
1.58	2.531070372
1.59	2.234480408
1.6	1.938853084
1.61	1.644290014
1.62	1.350891819
1.63	1.058758092
1.64	0.7679873751
1.65	0.4786771228
1.66	0.1909236773
1.67	-0.095177761
1.68	-0.3795331612
1.69	-0.6620496893
1.7	-0.9426357342
1.71	-1.221200934
1.72	-1.497656202
1.73	-1.77191375
1.74	-2.043887113
1.75	-2.313491174
1.76	-2.580642185
1.77	-2.845257788
1.78	-3.107257043
1.79	-3.366560441
1.8	-3.623089928
1.81	-3.876768926
1.82	-4.127522349
1.83	-4.375276624
1.84	-4.619959705
1.85	-4.861501096
1.86	-5.09983186
1.87	-5.334884643
1.88	-5.566593679
1.89	-5.794894815
1.9	-6.019725516
1.91	-6.241024884
1.92	-6.458733665
1.93	-6.672794267
1.94	-6.883150765
1.95	-7.089748915
1.96	-7.292536163
1.97	-7.491461651
1.98	-7.686476232
1.99	-7.877532469
2	-8.06458465
2.01	-8.247588788
2.02	-8.426502632
2.03	-8.601285667
2.04	-8.771899123
2.05	-8.938305974
2.06	-9.100470944
2.07	-9.258360511
2.08	-9.411942903
2.09	-9.561188104
2.1	-9.706067854
2.11	-9.846555645
2.12	-9.982626724
2.13	-10.11425809
2.14	-10.2414285
2.15	-10.36411844
2.16	-10.48231015
2.17	-10.59598762
2.18	-10.70513656
2.19	-10.80974443
2.2	-10.90980038
2.21	-11.00529531
2.22	-11.09622181
2.23	-11.1825742
2.24	-11.26434848
2.25	-11.34154231
2.26	-11.41415508
2.27	-11.48218781
2.28	-11.54564319
2.29	-11.60452556
2.3	-11.65884087
2.31	-11.70859674
2.32	-11.75380235
2.33	-11.79446851
2.34	-11.83060761
2.35	-11.8622336
2.36	-11.88936199
2.37	-11.91200983
2.38	-11.93019571
2.39	-11.9439397
2.4	-11.95326338
2.41	-11.95818982
2.42	-11.95874353
2.43	-11.95495046
2.44	-11.94683799
2.45	-11.93443492
2.46	-11.91777141
2.47	-11.89687899
2.48	-11.87179056
2.49	-11.84254033
2.5	-11.80916382
2.51	-11.77169783
2.52	-11.73018044
2.53	-11.68465095
2.54	-11.63514992
2.55	-11.58171906
2.56	-11.52440131
2.57	-11.46324072
2.58	-11.39828251
2.59	-11.32957297
2.6	-11.25715951
2.61	-11.18109059
2.62	-11.1014157
2.63	-11.01818534
2.64	-10.93145103
2.65	-10.84126521
2.66	-10.7476813
2.67	-10.65075361
2.68	-10.55053735
2.69	-10.44708859
2.7	-10.34046424
2.71	-10.23072202
2.72	-10.11792044
2.73	-10.00211878
2.74	-9.883377041
2.75	-9.761755935
2.76	-9.637316862
2.77	-9.510121876
2.78	-9.380233661
2.79	-9.247715503
2.8	-9.112631267
2.81	-8.975045365
2.82	-8.835022734
2.83	-8.692628809
2.84	-8.547929491
2.85	-8.400991128
2.86	-8.251880482
2.87	-8.100664705
2.88	-7.947411312
2.89	-7.792188155
2.9	-7.635063395
2.91	-7.476105476
2.92	-7.315383096
2.93	-7.152965188
2.94	-6.988920884
2.95	-6.823319494
2.96	-6.656230482
2.97	-6.487723432
2.98	-6.31786803
2.99	-6.146734035
3	-5.974391251
3.01	-5.800909504
3.02	-5.626358619
3.03	-5.450808387
3.04	-5.274328547
3.05	-5.096988759
3.06	-4.918858578
3.07	-4.740007428
3.08	-4.560504583
3.09	-4.380419137
3.1	-4.199819982
3.11	-4.018775787
3.12	-3.837354969
3.13	-3.655625675
3.14	-3.473655753
3.15	-3.291512737
3.16	-3.109263816
3.17	-2.926975818
3.18	-2.744715184
3.19	-2.562547948
3.2	-2.380539715
3.21	-2.198755641
3.22	-2.017260408
3.23	-1.83611821
3.24	-1.655392725
3.25	-1.475147101
3.26	-1.295443934
3.27	-1.116345247
3.28	-0.9379124739
3.29	-0.7602064384
3.3	-0.5832873369
3.31	-0.4072147194
3.32	-0.2320474727
3.33	-0.05784380216
3.34	0.1153387848
3.35	0.2874434959
3.36	0.4584142697
3.37	0.6281957924
3.38	0.7967335126
3.39	0.9639736574
3.4	1.129863246
3.41	1.294350107
3.42	1.457382889
3.43	1.618911075
3.44	1.778884998
3.45	1.937255854
3.46	2.093975711
3.47	2.248997523
3.48	2.402275145
3.49	2.553763338
3.5	2.703417786
3.51	2.851195104
3.52	2.997052847
3.53	3.140949523
3.54	3.282844598
3.55	3.422698509
3.56	3.560472671
3.57	3.696129486
3.58	3.829632347
3.59	3.960945652
3.6	4.090034805
3.61	4.216866224
3.62	4.341407351
3.63	4.463626652
3.64	4.583493626
3.65	4.700978807
3.66	4.816053774
3.67	4.928691149
3.68	5.038864602
3.69	5.146548858
3.7	5.251719696
3.71	5.354353952
3.72	5.454429524
3.73	5.551925369
3.74	5.64682151
3.75	5.73909903
3.76	5.828740079
3.77	5.91572787
3.78	6.000046681
3.79	6.081681854
3.8	6.16061979
3.81	6.236847955
3.82	6.310354873
3.83	6.381130123
3.84	6.449164341
3.85	6.514449214
3.86	6.576977476
3.87	6.636742908
3.88	6.693740329
3.89	6.747965596
3.9	6.799415597
3.91	6.848088248
3.92	6.893982485
3.93	6.937098258
3.94	6.977436529
3.95	7.014999263
3.96	7.049789419
3.97	7.081810948
3.98	7.11106878
3.99	7.137568823
4	7.161317948
4.01	7.182323985
4.02	7.200595715
4.03	7.216142857
4.04	7.228976064
4.05	7.23910691
4.06	7.246547879
4.07	7.251312362
4.08	7.253414637
4.09	7.252869867
4.1	7.249694085
4.11	7.243904183
4.12	7.235517901
4.13	7.224553817
4.14	7.211031334
4.15	7.194970667
4.16	7.176392834
4.17	7.155319639
4.18	7.131773664
4.19	7.105778254
4.2	7.077357502
4.21	7.046536239
4.22	7.01334002
4.23	6.977795109
4.24	6.939928466
4.25	6.899767733
4.26	6.857341219
4.27	6.812677889
4.28	6.765807344
4.29	6.716759813
4.3	6.665566131
4.31	6.612257732
4.32	6.556866627
4.33	6.499425393
4.34	6.439967158
4.35	6.378525582
4.36	6.315134846
4.37	6.249829634
4.38	6.182645116
4.39	6.113616937
4.4	6.042781197
4.41	5.970174437
4.42	5.895833622
4.43	5.819796126
4.44	5.742099715
4.45	5.662782534
4.46	5.581883086
4.47	5.499440219
4.48	5.415493109
4.49	5.330081246
4.5	5.243244412
4.51	5.155022672
4.52	5.065456353
4.53	4.974586029
4.54	4.882452505
4.55	4.789096801
4.56	4.694560134
4.57	4.598883907
4.58	4.502109685
4.59	4.404279186
4.6	4.30543426
4.61	4.205616878
4.62	4.10486911
4.63	4.003233113
4.64	3.900751117
4.65	3.797465403
4.66	3.693418293
4.67	3.588652133
4.68	3.483209275
4.69	3.377132064
4.7	3.270462823
4.71	3.163243836
4.72	3.055517335
4.73	2.94732548
4.74	2.838710353
4.75	2.729713935
4.76	2.620378094
4.77	2.510744573
4.78	2.40085497
4.79	2.290750731
4.8	2.18047313
4.81	2.070063256
4.82	1.959562003
4.83	1.849010052
4.84	1.738447859
4.85	1.627915642
4.86	1.517453367
4.87	1.407100736
4.88	1.296897174
4.89	1.186881815
4.9	1.077093492
4.91	0.9675707217
4.92	0.8583516952
4.93	0.7494742641
4.94	0.6409759296
4.95	0.5328938311
4.96	0.4252647344
4.97	0.3181250209
4.98	0.2115106769
4.99	0.1054572821
5	2.049417273e-15
5.01	-0.1048264328
5.02	-0.2089877168
5.03	-0.312449999
5.04	-0.415179883
5.05	-0.5171444382
5.06	-0.6183112089
5.07	-0.7186482232
5.08	-0.8181240019
5.09	-0.916707567
5.1	-1.01436845
5.11	-1.111076699
5.12	-1.206802889
5.13	-1.301518125
5.14	-1.395194055
5.15	-1.487802872
5.16	-1.579317324
5.17	-1.669710719
5.18	-1.758956931
5.19	-1.84703041
5.2	-1.93390618
5.21	-2.019559855
5.22	-2.103967633
5.23	-2.187106312
5.24	-2.268953287
5.25	-2.349486557
5.26	-2.428684732
5.27	-2.506527032
5.28	-2.582993296
5.29	-2.658063982
5.3	-2.731720174
5.31	-2.80394358
5.32	-2.874716539
5.33	-2.944022023
5.34	-3.011843639
5.35	-3.07816563
5.36	-3.142972879
5.37	-3.206250907
5.38	-3.267985882
5.39	-3.328164609
5.4	-3.386774543
5.41	-3.44380378
5.42	-3.499241063
5.43	-3.55307578
5.44	-3.605297964
5.45	-3.655898294
5.46	-3.704868095
5.47	-3.752199333
5.48	-3.797884621
5.49	-3.841917211
5.5	-3.884290996
5.51	-3.92500051
5.52	-3.964040922
5.53	-4.001408038
5.54	-4.037098295
5.55	-4.071108761
5.56	-4.103437132
5.57	-4.13408173
5.58	-4.163041495
5.59	-4.190315988
5.6	-4.215905385
5.61	-4.239810471
5.62	-4.262032641
5.63	-4.282573889
5.64	-4.301436811
5.65	-4.318624595
5.66	-4.334141019
5.67	-4.347990446
5.68	-4.360177818
5.69	-4.370708651
5.7	-4.379589029
5.71	-4.3868256
5.72	-4.392425569
5.73	-4.396396692
5.74	-4.398747271
5.75	-4.399486146
5.76	-4.39862269
5.77	-4.396166802
5.78	-4.3921289
5.79	-4.386519914
5.8	-4.37935128
5.81	-4.370634931
5.82	-4.360383291
5.83	-4.348609268
5.84	-4.335326246
5.85	-4.320548075
5.86	-4.304289068
5.87	-4.286563987
5.88	-4.267388042
5.89	-4.246776875
5.9	-4.224746558
5.91	-4.201313583
5.92	-4.176494851
5.93	-4.150307666
5.94	-4.122769725
5.95	-4.093899111
5.96	-4.063714281
5.97	-4.032234061
5.98	-3.999477633
5.99	-3.965464529
6	-3.930214619
6.01	-3.893748107
6.02	-3.856085514
6.03	-3.817247673
6.04	-3.777255723
6.05	-3.736131092
6.06	-3.693895491
6.07	-3.650570908
6.08	-3.606179593
6.09	-3.560744049
6.1	-3.514287025
6.11	-3.466831506
6.12	-3.418400701
6.13	-3.369018034
6.14	-3.318707134
6.15	-3.267491829
6.16	-3.215396129
6.17	-3.162444223
6.18	-3.108660465
6.19	-3.054069365
6.2	-2.998695581
6.21	-2.942563907
6.22	-2.885699263
6.23	-2.828126688
6.24	-2.769871328
6.25	-2.710958425
6.26	-2.65141331
6.27	-2.591261392
6.28	-2.530528148
6.29	-2.469239115
6.3	-2.407419878
6.31	-2.345096061
6.32	-2.282293319
6.33	-2.219037328
6.34	-2.155353773
6.35	-2.091268342
6.36	-2.026806715
6.37	-1.961994556
6.38	-1.896857501
6.39	-1.831421152
6.4	-1.765711066
6.41	-1.699752747
6.42	-1.633571637
6.43	-1.567193104
6.44	-1.500642439
6.45	-1.433944843
6.46	-1.36712542
6.47	-1.300209168
6.48	-1.23322097
6.49	-1.166185587
6.5	-1.099127649
6.51	-1.032071647
6.52	-0.9650419232
6.53	-0.8980626667
6.54	-0.8311579025
6.55	-0.7643514852
6.56	-0.6976670907
6.57	-0.6311282092
6.58	-0.5647581374
6.59	-0.4985799713
6.6	-0.4326165992
6.61	-0.3668906942
6.62	-0.3014247079
6.63	-0.2362408627
6.64	-0.171361146
6.65	-0.1068073031
6.66	-0.04260083069
6.67	0.02123702905
6.68	0.08468529505
6.69	0.1477232532
6.7	0.2103304623
6.71	0.27248676
6.72	0.3341722683
6.73	0.3953673988
6.74	0.4560528589
6.75	0.5162096562
6.76	0.5758191039
6.77	0.634862826
6.78	0.6933227617
6.79	0.7511811703
6.8	0.8084206359
6.81	0.8650240713
6.82	0.9209747228
6.83	0.9762561737
6.84	1.030852349
6.85	1.084747518
6.86	1.1379263
6.87	1.190373665
6.88	1.242074939
6.89	1.293015808
6.9	1.343182318
6.91	1.392560882
6.92	1.441138277
6.93	1.488901653
6.94	1.535838533
6.95	1.581936811
6.96	1.627184762
6.97	1.671571038
6.98	1.715084673
6.99	1.757715081
7	1.799452064
7.01	1.840285807
7.02	1.880206882
7.03	1.919206248
7.04	1.957275256
7.05	1.994405643
7.06	2.030589539
7.07	2.065819464
7.08	2.100088327
7.09	2.133389433
7.1	2.165716475
7.11	2.197063538
7.12	2.2274251
7.13	2.256796028
7.14	2.285171581
7.15	2.312547406
7.16	2.338919543
7.17	2.364284415
7.18	2.388638836
7.19	2.411980005
7.2	2.434305505
7.21	2.455613304
7.22	2.47590175
7.23	2.495169573
7.24	2.513415879
7.25	2.530640153
7.26	2.546842252
7.27	2.562022406
7.28	2.576181215
7.29	2.589319646
7.3	2.601439031
7.31	2.612541065
7.32	2.6226278
7.33	2.631701648
7.34	2.63976537
7.35	2.646822082
7.36	2.652875244
7.37	2.657928661
7.38	2.661986478
7.39	2.665053177
7.4	2.667133573
7.41	2.66823281
7.42	2.668356359
7.43	2.66751001
7.44	2.665699875
7.45	2.662932375
7.46	2.659214242
7.47	2.654552515
7.48	2.648954529
7.49	2.642427921
7.5	2.634980614
7.51	2.626620822
7.52	2.617357039
7.53	2.607198038
7.54	2.596152864
7.55	2.584230829
7.56	2.57144151
7.57	2.557794738
7.58	2.543300601
7.59	2.527969432
7.6	2.511811805
7.61	2.494838534
7.62	2.477060662
7.63	2.45848946
7.64	2.439136418
7.65	2.419013243
7.66	2.39813185
7.67	2.376504359
7.68	2.354143089
7.69	2.33106055
7.7	2.307269441
7.71	2.282782643
7.72	2.257613209
7.73	2.231774366
7.74	2.205279502
7.75	2.178142165
7.76	2.150376055
7.77	2.121995017
7.78	2.093013039
7.79	2.063444241
7.8	2.033302874
7.81	2.00260331
7.82	1.971360038
7.83	1.939587658
7.84	1.907300876
7.85	1.874514496
7.86	1.841243413
7.87	1.807502613
7.88	1.773307159
7.89	1.738672191
7.9	1.703612918
7.91	1.668144612
7.92	1.632282602
7.93	1.596042268
7.94	1.559439036
7.95	1.522488372
7.96	1.485205773
7.97	1.447606768
7.98	1.409706905
7.99	1.37152175
8	1.333066877
8.01	1.294357867
8.02	1.2554103
8.03	1.216239748
8.04	1.176861773
8.05	1.137291918
8.06	1.097545702
8.07	1.057638617
8.08	1.017586118
8.09	0.9774036235
8.1	0.9371065052
8.11	0.8967100849
8.12	0.8562296288
8.13	0.8156803422
8.14	0.7750773646
8.15	0.7344357642
8.16	0.6937705333
8.17	0.6530965831
8.18	0.6124287386
8.19	0.571781734
8.2	0.5311702079
8.21	0.4906086982
8.22	0.450111638
8.23	0.4096933502
8.24	0.3693680438
8.25	0.3291498089
8.26	0.2890526124
8.27	0.2490902937
8.28	0.2092765605
8.29	0.1696249844
8.3	0.1301489969
8.31	0.09086188556
8.32	0.05177678974
8.33	0.01290669684
8.34	-0.02573556153
8.35	-0.06413731327
8.36	-0.1022860494
8.37	-0.1401694278
8.38	-0.1777752763
8.39	-0.2150915965
8.4	-0.2521065671
8.41	-0.2888085467
8.42	-0.3251860773
8.43	-0.3612278874
8.44	-0.3969228946
8.45	-0.432260209
8.46	-0.4672291357
8.47	-0.5018191775
8.48	-0.5360200377
8.49	-0.5698216225
8.5	-0.6032140436
8.51	-0.6361876202
8.52	-0.6687328818
8.53	-0.7008405701
8.54	-0.7325016409
8.55	-0.7637072665
8.56	-0.7944488374
8.57	-0.8247179641
8.58	-0.854506479
8.59	-0.8838064377
8.6	-0.912610121
8.61	-0.940910036
8.62	-0.9686989175
8.63	-0.9959697297
8.64	-1.022715667
8.65	-1.048930154
8.66	-1.07460685
8.67	-1.099739645
8.68	-1.124322666
8.69	-1.148350271
8.7	-1.171817057
8.71	-1.194717855
8.72	-1.217047733
8.73	-1.238801997
8.74	-1.259976188
8.75	-1.280566086
8.76	-1.300567707
8.77	-1.319977307
8.78	-1.338791377
8.79	-1.357006646
8.8	-1.37462008
8.81	-1.391628883
8.82	-1.408030493
8.83	-1.423822586
8.84	-1.439003072
8.85	-1.453570096
8.86	-1.467522038
8.87	-1.480857508
8.88	-1.493575352
8.89	-1.505674644
8.9	-1.517154691
8.91	-1.528015028
8.92	-1.538255416
8.93	-1.547875845
8.94	-1.55687653
8.95	-1.565257909
8.96	-1.573020642
8.97	-1.580165611
8.98	-1.586693916
8.99	-1.592606875
9	-1.597906021
9.01	-1.602593101
9.02	-1.606670075
9.03	-1.610139111
9.04	-1.613002587
9.05	-1.615263084
9.06	-1.616923389
9.07	-1.617986489
9.08	-1.61845557
9.09	-1.618334015
9.1	-1.617625402
9.11	-1.6163335
9.12	-1.614462268
9.13	-1.61201585
9.14	-1.608998576
9.15	-1.605414957
9.16	-1.601269682
9.17	-1.596567617
9.18	-1.5913138
9.19	-1.58551344
9.2	-1.579171913
9.21	-1.57229476
9.22	-1.564887682
9.23	-1.55695654
9.24	-1.54850735
9.25	-1.539546279
9.26	-1.530079644
9.27	-1.520113908
9.28	-1.509655676
9.29	-1.498711693
9.3	-1.487288838
9.31	-1.475394127
9.32	-1.463034701
9.33	-1.450217829
9.34	-1.436950903
9.35	-1.423241435
9.36	-1.40909705
9.37	-1.394525487
9.38	-1.379534595
9.39	-1.364132326
9.4	-1.348326736
9.41	-1.332125978
9.42	-1.3155383
9.43	-1.298572042
9.44	-1.281235629
9.45	-1.263537574
9.46	-1.245486467
9.47	-1.227090977
9.48	-1.208359845
9.49	-1.189301882
9.5	-1.169925965
9.51	-1.150241034
9.52	-1.130256087
9.53	-1.109980177
9.54	-1.089422409
9.55	-1.068591936
9.56	-1.047497955
9.57	-1.026149703
9.58	-1.004556455
9.59	-0.9827275201
9.6	-0.960672236
9.61	-0.9383999675
9.62	-0.9159201018
9.63	-0.8932420457
9.64	-0.8703752214
9.65	-0.8473290635
9.66	-0.8241130153
9.67	-0.8007365252
9.68	-0.7772090433
9.69	-0.7535400183
9.7	-0.7297388935
9.71	-0.7058151038
9.72	-0.6817780722
9.73	-0.6576372064
9.74	-0.6334018958
9.75	-0.6090815075
9.76	-0.5846853838
9.77	-0.5602228386
9.78	-0.535703154
9.79	-0.5111355775
9.8	-0.4865293186
9.81	-0.4618935459
9.82	-0.4372373837
9.83	-0.4125699091
9.84	-0.3879001492
9.85	-0.3632370779
9.86	-0.3385896127
9.87	-0.3139666125
9.88	-0.289376874
9.89	-0.2648291294
9.9	-0.2403320433
9.91	-0.2158942101
9.92	-0.1915241512
9.93	-0.1672303126
9.94	-0.1430210618
9.95	-0.1189046859
9.96	-0.09488938829
9.97	-0.07098328687
9.98	-0.0471944112
9.99	-0.02353070024
10	-9.145736087e-16
10.01	0.02338993874
10.02	0.04663146271
10.03	0.06971701831
10.04	0.09263915379
10.05	0.1153905213
10.06	0.1379638791
10.07	0.1603520931
10.08	0.1825481396
10.09	0.2045451062
10.1	0.2263361947
10.11	0.2479147218
10.12	0.2692741218
10.13	0.2904079477
10.14	0.3113098729
10.15	0.3319736931
10.16	0.3523933274
10.17	0.3725628201
10.18	0.3924763418
10.19	0.4121281911
10.2	0.4315127957
10.21	0.4506247138
10.22	0.469458635
10.23	0.4880093818
10.24	0.5062719103
10.25	0.5242413118
10.26	0.5419128131
10.27	0.559281778
10.28	0.5763437077
10.29	0.593094242
10.3	0.6095291598
10.31	0.62564438
10.32	0.6414359617
10.33	0.6569001055
10.34	0.6720331536
10.35	0.68683159
10.36	0.7012920417
10.37	0.7154112784
10.38	0.7291862131
10.39	0.7426139023
10.4	0.7556915462
10.41	0.768416489
10.42	0.7807862188
10.43	0.7927983677
10.44	0.804450712
10.45	0.8157411718
10.46	0.8266678113
10.47	0.8372288381
10.48	0.8474226037
10.49	0.8572476025
10.5	0.866702472
10.51	0.8757859924
10.52	0.8844970858
10.53	0.8928348163
10.54	0.9007983891
10.55	0.9083871498
10.56	0.9156005845
10.57	0.9224383184
10.58	0.9289001154
10.59	0.9349858775
10.6	0.9406956437
10.61	0.9460295895
10.62	0.9509880257
10.63	0.9555713977
10.64	0.9597802844
10.65	0.9636153974
10.66	0.9670775797
10.67	0.9701678046
10.68	0.9728871749
10.69	0.9752369212
10.7	0.9772184014
10.71	0.9788330986
10.72	0.9800826206
10.73	0.980968698
10.74	0.981493183
10.75	0.9816580484
10.76	0.9814653853
10.77	0.9809174027
