temps	angle
0	0
0.01	0.5010963626
0.02	0.9988750972
0.03	1.493038118
0.04	1.98329143
0.05	2.469345296
0.06	2.950914394
0.07	3.427717972
0.08	3.899480001
0.09	4.365929326
0.1	4.826799805
0.11	5.281830451
0.12	5.730765569
0.13	6.173354887
0.14	6.609353682
0.15	7.038522907
0.16	7.460629305
0.17	7.875445524
0.18	8.282750232
0.19	8.682328215
0.2	9.073970484
0.21	9.457474367
0.22	9.832643605
0.23	10.19928843
0.24	10.55722567
0.25	10.90627878
0.26	11.24627798
0.27	11.57706027
0.28	11.89846951
0.29	12.21035649
0.3	12.51257896
0.31	12.80500171
0.32	13.08749659
0.33	13.35994256
0.34	13.62222572
0.35	13.87423935
0.36	14.11588391
0.37	14.34706709
0.38	14.56770382
0.39	14.77771627
0.4	14.97703385
0.41	15.16559323
0.42	15.34333835
0.43	15.51022036
0.44	15.66619766
0.45	15.81123586
0.46	15.94530776
0.47	16.06839333
0.48	16.18047968
0.49	16.28156101
0.5	16.37163859
0.51	16.45072072
0.52	16.51882267
0.53	16.57596661
0.54	16.6221816
0.55	16.65750351
0.56	16.68197493
0.57	16.69564515
0.58	16.69857003
0.59	16.69081201
0.6	16.67243993
0.61	16.64352902
0.62	16.6041608
0.63	16.55442296
0.64	16.49440931
0.65	16.42421964
0.66	16.34395965
0.67	16.25374086
0.68	16.15368046
0.69	16.04390122
0.7	15.92453141
0.71	15.79570464
0.72	15.65755975
0.73	15.51024074
0.74	15.35389656
0.75	15.18868106
0.76	15.01475285
0.77	14.83227512
0.78	14.64141556
0.79	14.44234623
0.8	14.23524338
0.81	14.02028734
0.82	13.79766238
0.83	13.56755657
0.84	13.33016163
0.85	13.08567278
0.86	12.83428863
0.87	12.57621098
0.88	12.31164469
0.89	12.04079758
0.9	11.76388019
0.91	11.48110572
0.92	11.1926898
0.93	10.8988504
0.94	10.59980763
0.95	10.29578363
0.96	9.987002364
0.97	9.673689517
0.98	9.356072309
0.99	9.034379353
1	8.708840495
1.01	8.379686664
1.02	8.047149718
1.03	7.711462284
1.04	7.372857616
1.05	7.03156943
1.06	6.687831762
1.07	6.34187881
1.08	5.993944788
1.09	5.644263772
1.1	5.293069556
1.11	4.940595499
1.12	4.587074385
1.13	4.23273827
1.14	3.877818347
1.15	3.522544796
1.16	3.167146645
1.17	2.811851635
1.18	2.456886076
1.19	2.102474714
1.2	1.748840599
1.21	1.396204946
1.22	1.044787013
1.23	0.6948039664
1.24	0.3464707582
1.25	1.683373231e-15
1.26	-0.3443981576
1.27	-0.6865161452
1.28	-1.026149091
1.29	-1.363094937
1.3	-1.697154548
1.31	-2.028131826
1.32	-2.355833813
1.33	-2.680070798
1.34	-3.000656418
1.35	-3.317407757
1.36	-3.630145441
1.37	-3.938693735
1.38	-4.242880628
1.39	-4.542537926
1.4	-4.837501333
1.41	-5.127610534
1.42	-5.412709274
1.43	-5.692645433
1.44	-5.967271097
1.45	-6.23644263
1.46	-6.500020737
1.47	-6.757870532
1.48	-7.009861591
1.49	-7.255868015
1.5	-7.495768479
1.51	-7.729446285
1.52	-7.956789404
1.53	-8.177690528
1.54	-8.392047103
1.55	-8.599761368
1.56	-8.80074039
1.57	-8.994896093
1.58	-9.182145288
1.59	-9.362409693
1.6	-9.535615956
1.61	-9.701695671
1.62	-9.860585395
1.63	-10.01222665
1.64	-10.15656596
1.65	-10.29355479
1.66	-10.42314964
1.67	-10.54531195
1.68	-10.66000817
1.69	-10.76720969
1.7	-10.86689289
1.71	-10.95903907
1.72	-11.04363446
1.73	-11.12067021
1.74	-11.19014232
1.75	-11.25205168
1.76	-11.30640398
1.77	-11.35320972
1.78	-11.39248414
1.79	-11.42424721
1.8	-11.44852357
1.81	-11.46534252
1.82	-11.47473791
1.83	-11.47674816
1.84	-11.47141615
1.85	-11.45878921
1.86	-11.43891906
1.87	-11.4118617
1.88	-11.37767742
1.89	-11.33643068
1.9	-11.28819007
1.91	-11.23302824
1.92	-11.17102183
1.93	-11.10225139
1.94	-11.0268013
1.95	-10.94475971
1.96	-10.85621845
1.97	-10.76127295
1.98	-10.66002217
1.99	-10.55256849
2	-10.43901765
2.01	-10.31947866
2.02	-10.19406367
2.03	-10.06288794
2.04	-9.926069726
2.05	-9.783730155
2.06	-9.635993171
2.07	-9.482985423
2.08	-9.324836167
2.09	-9.16167717
2.1	-8.99364261
2.11	-8.820868977
2.12	-8.643494971
2.13	-8.461661402
2.14	-8.275511083
2.15	-8.085188734
2.16	-7.890840869
2.17	-7.692615701
2.18	-7.490663031
2.19	-7.285134144
2.2	-7.076181704
2.21	-6.863959652
2.22	-6.648623091
2.23	-6.43032819
2.24	-6.20923207
2.25	-5.985492703
2.26	-5.759268804
2.27	-5.530719726
2.28	-5.300005352
2.29	-5.067285993
2.3	-4.832722282
2.31	-4.596475068
2.32	-4.358705314
2.33	-4.11957399
2.34	-3.879241977
2.35	-3.637869958
2.36	-3.395618317
2.37	-3.152647046
2.38	-2.909115633
2.39	-2.665182975
2.4	-2.421007272
2.41	-2.176745934
2.42	-1.932555482
2.43	-1.688591459
2.44	-1.44500833
2.45	-1.201959394
2.46	-0.9595966903
2.47	-0.7180709125
2.48	-0.477531317
2.49	-0.2381256375
2.5	-2.313928747e-15
2.51	0.2367011614
2.52	0.4718351863
2.53	0.7052612687
2.54	0.9368405359
2.55	1.166436125
2.56	1.39391326
2.57	1.619139322
2.58	1.841983926
2.59	2.062318985
2.6	2.280018785
2.61	2.494960042
2.62	2.707021976
2.63	2.916086367
2.64	3.122037615
2.65	3.324762802
2.66	3.524151746
2.67	3.720097054
2.68	3.912494174
2.69	4.101241449
2.7	4.286240157
2.71	4.467394565
2.72	4.644611964
2.73	4.817802718
2.74	4.986880295
2.75	5.151761312
2.76	5.312365562
2.77	5.468616051
2.78	5.620439025
2.79	5.767764001
2.8	5.910523788
2.81	6.048654515
2.82	6.182095649
2.83	6.310790013
2.84	6.434683806
2.85	6.553726613
2.86	6.667871421
2.87	6.777074624
2.88	6.881296036
2.89	6.980498891
2.9	7.074649849
2.91	7.163718997
2.92	7.247679844
2.93	7.326509324
2.94	7.400187784
2.95	7.468698978
2.96	7.53203006
2.97	7.590171567
2.98	7.643117407
2.99	7.690864847
3	7.733414484
3.01	7.770770238
3.02	7.802939318
3.03	7.829932205
3.04	7.851762623
3.05	7.86844751
3.06	7.880006991
3.07	7.886464343
3.08	7.887845963
3.09	7.884181331
3.1	7.875502975
3.11	7.86184643
3.12	7.843250199
3.13	7.819755708
3.14	7.791407264
3.15	7.758252011
3.16	7.720339879
3.17	7.677723539
3.18	7.630458351
3.19	7.578602312
3.2	7.522216006
3.21	7.461362547
3.22	7.396107525
3.23	7.326518948
3.24	7.252667188
3.25	7.174624915
3.26	7.092467043
3.27	7.006270667
3.28	6.916114998
3.29	6.822081303
3.3	6.724252842
3.31	6.622714797
3.32	6.517554212
3.33	6.408859924
3.34	6.296722495
3.35	6.181234143
3.36	6.062488677
3.37	5.940581425
3.38	5.815609162
3.39	5.687670044
3.4	5.556863534
3.41	5.42329033
3.42	5.287052297
3.43	5.148252392
3.44	5.006994591
3.45	4.86338382
3.46	4.717525879
3.47	4.569527369
3.48	4.419495624
3.49	4.267538631
3.5	4.113764963
3.51	3.958283703
3.52	3.801204372
3.53	3.642636856
3.54	3.482691336
3.55	3.321478212
3.56	3.159108035
3.57	2.995691431
3.58	2.831339037
3.59	2.666161421
3.6	2.500269019
3.61	2.333772064
3.62	2.166780514
3.63	1.999403985
3.64	1.831751685
3.65	1.663932342
3.66	1.496054143
3.67	1.328224664
3.68	1.160550806
3.69	0.9931387331
3.7	0.8260938048
3.71	0.6595205172
3.72	0.4935224396
3.73	0.3282021544
3.74	0.1636611977
3.75	2.38550763e-15
3.76	-0.1626821705
3.77	-0.3242872649
3.78	-0.4847185088
3.79	-0.6438804562
3.8	-0.8016790432
3.81	-0.958021639
3.82	-1.112817097
3.83	-1.265975804
3.84	-1.417409728
3.85	-1.567032466
3.86	-1.714759288
3.87	-1.860507182
3.88	-2.004194896
3.89	-2.145742981
3.9	-2.285073828
3.91	-2.422111712
3.92	-2.556782821
3.93	-2.689015299
3.94	-2.818739277
3.95	-2.945886906
3.96	-3.070392388
3.97	-3.192192007
3.98	-3.311224155
3.99	-3.427429362
4	-3.540750317
4.01	-3.651131896
4.02	-3.758521182
4.03	-3.862867484
4.04	-3.96412236
4.05	-4.062239632
4.06	-4.157175399
4.07	-4.24888806
4.08	-4.337338317
4.09	-4.422489192
4.1	-4.504306037
4.11	-4.58275654
4.12	-4.657810731
4.13	-4.72944099
4.14	-4.797622049
4.15	-4.862330993
4.16	-4.923547263
4.17	-4.981252653
4.18	-5.03543131
4.19	-5.086069725
4.2	-5.133156734
4.21	-5.176683508
4.22	-5.216643542
4.23	-5.253032651
4.24	-5.285848954
4.25	-5.315092864
4.26	-5.340767073
4.27	-5.362876536
4.28	-5.381428458
4.29	-5.39643227
4.3	-5.407899615
4.31	-5.415844322
4.32	-5.420282391
4.33	-5.421231963
4.34	-5.418713301
4.35	-5.41274876
4.36	-5.403362763
4.37	-5.390581773
4.38	-5.374434261
4.39	-5.354950679
4.4	-5.332163429
4.41	-5.306106828
4.42	-5.276817074
4.43	-5.244332217
4.44	-5.208692117
4.45	-5.169938414
4.46	-5.128114484
4.47	-5.083265406
4.48	-5.035437924
4.49	-4.984680401
4.5	-4.931042783
4.51	-4.874576559
4.52	-4.815334714
4.53	-4.753371689
4.54	-4.688743339
4.55	-4.621506886
4.56	-4.551720877
4.57	-4.479445134
4.58	-4.404740715
4.59	-4.327669862
4.6	-4.248295956
4.61	-4.166683471
4.62	-4.082897923
4.63	-3.997005827
4.64	-3.909074643
4.65	-3.81917273
4.66	-3.7273693
4.67	-3.63373436
4.68	-3.538338674
4.69	-3.441253702
4.7	-3.342551558
4.71	-3.242304959
4.72	-3.14058717
4.73	-3.03747196
4.74	-2.933033548
4.75	-2.827346555
4.76	-2.720485951
4.77	-2.612527011
4.78	-2.503545258
4.79	-2.393616416
4.8	-2.282816365
4.81	-2.171221083
4.82	-2.058906603
4.83	-1.945948965
4.84	-1.83242416
4.85	-1.718408091
4.86	-1.603976519
4.87	-1.489205017
4.88	-1.374168923
4.89	-1.258943294
4.9	-1.143602859
4.91	-1.028221973
4.92	-0.9128745712
4.93	-0.7976341266
4.94	-0.6825736036
4.95	-0.5677654153
4.96	-0.4532813806
4.97	-0.3391926816
4.98	-0.225569822
4.99	-0.1124825865
5	-2.186045091e-15
5.01	0.1118097116
5.02	0.2228791604
5.03	0.3331418343
5.04	0.4425321344
5.05	0.5509854114
5.06	0.6584380013
5.07	0.76482726
5.08	0.8700915972
5.09	0.9741705098
5.1	1.077004613
5.11	1.178535674
5.12	1.278706639
5.13	1.377461664
5.14	1.474746146
5.15	1.570506744
5.16	1.664691412
5.17	1.757249421
5.18	1.848131386
5.19	1.937289285
5.2	2.024676487
5.21	2.11024777
5.22	2.193959342
5.23	2.275768861
5.24	2.355635454
5.25	2.433519732
5.26	2.509383808
5.27	2.583191312
5.28	2.654907407
5.29	2.724498798
5.3	2.791933747
5.31	2.857182082
5.32	2.92021521
5.33	2.981006124
5.34	3.039529407
5.35	3.095761248
5.36	3.149679437
5.37	3.201263378
5.38	3.250494087
5.39	3.297354198
5.4	3.341827961
5.41	3.383901247
5.42	3.423561543
5.43	3.460797953
5.44	3.495601193
5.45	3.52796359
5.46	3.557879075
5.47	3.585343178
5.48	3.610353022
5.49	3.632907315
5.5	3.653006341
5.51	3.67065195
5.52	3.685847547
5.53	3.698598084
5.54	3.708910043
5.55	3.716791426
5.56	3.722251738
5.57	3.725301975
5.58	3.725954606
5.59	3.724223556
5.6	3.720124191
5.61	3.713673296
5.62	3.704889059
5.63	3.693791047
5.64	3.68040019
5.65	3.664738758
5.66	3.646830335
5.67	3.626699801
5.68	3.604373307
5.69	3.579878249
5.7	3.553243244
5.71	3.524498105
5.72	3.493673815
5.73	3.460802499
5.74	3.425917398
5.75	3.389052838
5.76	3.350244208
5.77	3.309527922
5.78	3.2669414
5.79	3.222523028
5.8	3.176312135
5.81	3.128348959
5.82	3.078674616
5.83	3.027331069
5.84	2.974361098
5.85	2.919808264
5.86	2.863716878
5.87	2.806131969
5.88	2.747099252
5.89	2.686665092
5.9	2.624876471
5.91	2.561780958
5.92	2.497426668
5.93	2.431862235
5.94	2.365136775
5.95	2.29729985
5.96	2.228401437
5.97	2.158491891
5.98	2.087621913
5.99	2.015842512
6	1.943204974
6.01	1.869760827
6.02	1.795561805
6.03	1.720659815
6.04	1.645106901
6.05	1.568955213
6.06	1.492256972
6.07	1.415064435
6.08	1.33742986
6.09	1.259405479
6.1	1.181043458
6.11	1.102395865
6.12	1.023514642
6.13	0.9444515682
6.14	0.8652582289
6.15	0.7859859844
6.16	0.7066859382
6.17	0.6274089057
6.18	0.5482053836
6.19	0.4691255197
6.2	0.3902190828
6.21	0.3115354332
6.22	0.2331234935
6.23	0.1550317203
6.24	0.07730807576
6.25	1.878056693e-15
6.26	-0.07684561607
6.27	-0.1531824574
6.28	-0.228964811
6.29	-0.3041475915
6.3	-0.378686366
6.31	-0.452537379
6.32	-0.5256575759
6.33	-0.5980046263
6.34	-0.6695369471
6.35	-0.740213724
6.36	-0.8099949336
6.37	-0.8788413638
6.38	-0.946714634
6.39	-1.013577215
6.4	-1.079392447
6.41	-1.14412456
6.42	-1.207738687
6.43	-1.270200887
6.44	-1.331478156
6.45	-1.391538443
6.46	-1.450350668
6.47	-1.507884734
6.48	-1.564111539
6.49	-1.619002992
6.5	-1.672532021
6.51	-1.724672587
6.52	-1.775399694
6.53	-1.824689397
6.54	-1.872518814
6.55	-1.918866131
6.56	-1.963710613
6.57	-2.007032606
6.58	-2.048813549
6.59	-2.089035974
6.6	-2.127683515
6.61	-2.164740909
6.62	-2.200193998
6.63	-2.234029737
6.64	-2.266236188
6.65	-2.296802529
6.66	-2.325719048
6.67	-2.352977144
6.68	-2.378569329
6.69	-2.402489223
6.7	-2.424731551
6.71	-2.445292143
6.72	-2.464167927
6.73	-2.481356925
6.74	-2.496858249
6.75	-2.510672093
6.76	-2.522799731
6.77	-2.533243502
6.78	-2.54200681
6.79	-2.549094109
6.8	-2.554510898
6.81	-2.558263712
6.82	-2.560360108
6.83	-2.560808654
6.84	-2.559618922
6.85	-2.556801473
6.86	-2.552367842
6.87	-2.546330529
6.88	-2.538702985
6.89	-2.529499592
6.9	-2.518735658
6.91	-2.506427391
6.92	-2.492591891
6.93	-2.477247131
6.94	-2.46041194
6.95	-2.442105986
6.96	-2.422349761
6.97	-2.401164557
6.98	-2.378572454
6.99	-2.354596298
7	-2.329259681
7.01	-2.302586925
7.02	-2.274603059
7.03	-2.245333799
7.04	-2.214805528
7.05	-2.183045276
7.06	-2.1500807
7.07	-2.115940056
7.08	-2.080652187
7.09	-2.044246494
7.1	-2.006752916
7.11	-1.968201907
7.12	-1.928624417
7.13	-1.888051864
7.14	-1.846516113
7.15	-1.804049457
7.16	-1.760684587
7.17	-1.716454573
7.18	-1.671392842
7.19	-1.625533148
7.2	-1.578909557
7.21	-1.531556416
7.22	-1.483508335
7.23	-1.434800159
7.24	-1.385466946
7.25	-1.335543945
7.26	-1.285066571
7.27	-1.234070378
7.28	-1.182591043
7.29	-1.130664335
7.3	-1.078326097
7.31	-1.025612218
7.32	-0.9725586147
7.33	-0.9192012042
7.34	-0.8655758836
7.35	-0.8117185062
7.36	-0.757664859
7.37	-0.7034506402
7.38	-0.6491114371
7.39	-0.5946827041
7.4	-0.5401997404
7.41	-0.4856976688
7.42	-0.4312114143
7.43	-0.3767756827
7.44	-0.3224249401
7.45	-0.268193392
7.46	-0.2141149632
7.47	-0.1602232777
7.48	-0.1065516392
7.49	-0.05313301163
7.5	-1.548921876e-15
7.51	0.05281516805
7.52	0.1052806607
7.53	0.1573650598
7.54	0.2090373788
7.55	0.2602670794
7.56	0.3110240889
7.57	0.3612788162
7.58	0.4110021683
7.59	0.4601655655
7.6	0.5087409565
7.61	0.5567008338
7.62	0.6040182471
7.63	0.650666818
7.64	0.696620753
7.65	0.7418548565
7.66	0.7863445435
7.67	0.8300658513
7.68	0.8729954517
7.69	0.9151106612
7.7	0.9563894527
7.71	0.9968104646
7.72	1.036353011
7.73	1.074997092
7.74	1.112723399
7.75	1.149513327
7.76	1.185348979
7.77	1.220213175
7.78	1.25408946
7.79	1.286962105
7.8	1.318816119
7.81	1.349637251
7.82	1.379411992
7.83	1.408127586
7.84	1.435772028
7.85	1.462334069
7.86	1.487803218
7.87	1.512169746
7.88	1.535424687
7.89	1.557559835
7.9	1.578567754
7.91	1.598441767
7.92	1.617175964
7.93	1.634765199
7.94	1.651205085
7.95	1.666491999
7.96	1.680623074
7.97	1.693596197
7.98	1.705410011
7.99	1.716063905
8	1.725558012
8.01	1.733893208
8.02	1.7410711
8.03	1.747094027
8.04	1.751965052
8.05	1.755687953
8.06	1.758267222
8.07	1.759708052
8.08	1.760016333
8.09	1.759198643
8.1	1.75726224
8.11	1.754215053
8.12	1.750065673
8.13	1.744823343
8.14	1.738497951
8.15	1.731100014
8.16	1.722640674
8.17	1.713131683
8.18	1.702585394
8.19	1.691014748
8.2	1.678433262
8.21	1.66485502
8.22	1.650294656
8.23	1.634767346
8.24	1.618288791
8.25	1.600875206
8.26	1.582543307
8.27	1.563310296
8.28	1.543193847
8.29	1.522212094
8.3	1.500383614
8.31	1.477727413
8.32	1.454262915
8.33	1.430009941
8.34	1.404988699
8.35	1.379219764
8.36	1.352724069
8.37	1.325522885
8.38	1.297637804
8.39	1.269090728
8.4	1.23990385
8.41	1.21009964
8.42	1.179700826
8.43	1.148730381
8.44	1.117211505
8.45	1.085167611
8.46	1.052622305
8.47	1.019599374
8.48	0.9861227663
8.49	0.9522165782
8.5	0.917905035
8.51	0.8832124765
8.52	0.8481633402
8.53	0.812782145
8.54	0.7770934755
8.55	0.7411219654
8.56	0.7048922817
8.57	0.6684291088
8.58	0.6317571327
8.59	0.5949010248
8.6	0.5578854267
8.61	0.5207349345
8.62	0.4834740831
8.63	0.4461273315
8.64	0.4087190468
8.65	0.37127349
8.66	0.3338148005
8.67	0.2963669819
8.68	0.2589538873
8.69	0.2215992046
8.7	0.184326443
8.71	0.1471589186
8.72	0.110119741
8.73	0.07323179928
8.74	0.03651774925
8.75	1.241983632e-15
8.76	-0.03629929876
8.77	-0.07235826935
8.78	-0.1081553185
8.79	-0.1436691493
8.8	-0.1788787733
8.81	-0.2137635217
8.82	-0.2483030571
8.83	-0.2824773839
8.84	-0.3162668596
8.85	-0.3496522051
8.86	-0.3826145145
8.87	-0.4151352654
8.88	-0.4471963281
8.89	-0.4787799749
8.9	-0.5098688893
8.91	-0.5404461742
8.92	-0.5704953603
8.93	-0.6000004144
8.94	-0.6289457464
8.95	-0.6573162172
8.96	-0.6850971453
8.97	-0.7122743138
8.98	-0.738833976
8.99	-0.7647628623
9	-0.7900481852
9.01	-0.8146776447
9.02	-0.8386394332
9.03	-0.8619222404
9.04	-0.8845152571
9.05	-0.9064081796
9.06	-0.9275912126
9.07	-0.9480550733
9.08	-0.9677909932
9.09	-0.9867907217
9.1	-1.005046527
9.11	-1.022551201
9.12	-1.039298054
9.13	-1.055280925
9.14	-1.070494176
9.15	-1.084932693
9.16	-1.098591889
9.17	-1.111467702
9.18	-1.123556595
9.19	-1.134855552
9.2	-1.145362084
9.21	-1.15507422
9.22	-1.163990509
9.23	-1.172110017
9.24	-1.179432324
9.25	-1.185957522
9.26	-1.191686212
9.27	-1.1966195
9.28	-1.200758994
9.29	-1.204106797
9.3	-1.206665507
9.31	-1.208438211
9.32	-1.209428478
9.33	-1.209640356
9.34	-1.209078367
9.35	-1.207747498
9.36	-1.205653199
9.37	-1.202801374
9.38	-1.199198377
9.39	-1.194851003
9.4	-1.18976648
9.41	-1.183952466
9.42	-1.177417039
9.43	-1.170168687
9.44	-1.162216306
9.45	-1.153569186
9.46	-1.144237006
9.47	-1.134229824
9.48	-1.12355807
9.49	-1.112232536
9.5	-1.100264366
9.51	-1.087665048
9.52	-1.074446406
9.53	-1.060620586
9.54	-1.046200052
9.55	-1.031197572
9.56	-1.015626208
9.57	-0.9994993102
9.58	-0.9828305012
9.59	-0.9656336694
9.6	-0.947922957
9.61	-0.9297127501
9.62	-0.9110176675
9.63	-0.8918525502
9.64	-0.872232451
9.65	-0.852172623
9.66	-0.8316885088
9.67	-0.8107957298
9.68	-0.7895100749
9.69	-0.7678474896
9.7	-0.7458240645
9.71	-0.7234560247
9.72	-0.7007597182
9.73	-0.6777516049
9.74	-0.6544482453
9.75	-0.6308662895
9.76	-0.607022466
9.77	-0.5829335704
9.78	-0.5586164543
9.79	-0.5340880143
9.8	-0.5093651811
9.81	-0.4844649079
9.82	-0.4594041601
9.83	-0.4341999041
9.84	-0.4088690963
9.85	-0.3834286726
9.86	-0.3578955376
9.87	-0.3322865539
9.88	-0.3066185319
9.89	-0.2809082189
9.9	-0.2551722892
9.91	-0.2294273335
9.92	-0.2036898493
9.93	-0.1779762304
9.94	-0.1523027575
9.95	-0.1266855881
9.96	-0.101140747
9.97	-0.07568411736
9.98	-0.05033143051
9.99	-0.02509825754
10	-9.755451827e-16
10.01	0.02494811886
10.02	0.04973106276
10.03	0.07433399084
10.04	0.09874226602
10.05	0.1229414631
10.06	0.1469173767
10.07	0.170656029
10.08	0.1941436774
10.09	0.2173668219
10.1	0.2403122119
10.11	0.2629668537
10.12	0.2853180172
10.13	0.3073532418
10.14	0.3290603437
10.15	0.3504274212
10.16	0.3714428613
10.17	0.3920953447
10.18	0.4123738521
10.19	0.4322676684
10.2	0.4517663888
10.21	0.4708599229
10.22	0.4895384994
10.23	0.5077926705
10.24	0.5256133161
10.25	0.5429916474
10.26	0.5599192109
10.27	0.5763878912
10.28	0.592389915
10.29	0.6079178532
10.3	0.622964624
10.31	0.6375234956
10.32	0.6515880876
10.33	0.6651523737
10.34	0.6782106834
10.35	0.690757703
10.36	0.7027884772
10.37	0.7142984102
10.38	0.7252832662
10.39	0.7357391702
10.4	0.7456626082
10.41	0.7550504272
10.42	0.7638998355
10.43	0.7722084015
10.44	0.779974054
10.45	0.7871950808
10.46	0.7938701277
10.47	0.7999981974
10.48	0.805578648
10.49	0.810611191
10.5	0.8150958899
10.51	0.8190331573
10.52	0.8224237534
10.53	0.8252687828
10.54	0.8275696919
10.55	0.8293282661
10.56	0.8305466264
10.57	0.8312272263
10.58	0.8313728479
10.59	0.8309865986
10.6	0.8300719066
10.61	0.8286325174
10.62	0.826672489
10.63	0.8241961879
10.64	0.8212082839
10.65	0.8177137459
10.66	0.8137178366
10.67	0.8092261074
10.68	0.8042443932
10.69	0.7987788069
10.7	0.792835734
10.71	0.7864218266
10.72	0.7795439979
