temps	angle
0	0
0.01	0.5626329819
0.02	1.119454773
0.03	1.670312494
0.04	2.215057045
0.05	2.753543124
0.06	3.285629239
0.07	3.811177732
0.08	4.330054786
0.09	4.84213044
0.1	5.347278601
0.11	5.845377052
0.12	6.336307457
0.13	6.819955375
0.14	7.296210253
0.15	7.764965441
0.16	8.226118185
0.17	8.679569632
0.18	9.125224824
0.19	9.562992702
0.2	9.992786093
0.21	10.41452171
0.22	10.82812015
0.23	11.23350588
0.24	11.6306072
0.25	12.01935629
0.26	12.39968916
0.27	12.77154563
0.28	13.13486934
0.29	13.48960769
0.3	13.83571189
0.31	14.17313689
0.32	14.50184135
0.33	14.82178767
0.34	15.13294194
0.35	15.43527388
0.36	15.72875688
0.37	16.01336794
0.38	16.28908764
0.39	16.55590011
0.4	16.81379303
0.41	17.06275755
0.42	17.30278831
0.43	17.53388338
0.44	17.75604421
0.45	17.96927565
0.46	18.17358585
0.47	18.36898627
0.48	18.55549163
0.49	18.73311985
0.5	18.90189206
0.51	19.06183251
0.52	19.21296856
0.53	19.35533061
0.54	19.48895212
0.55	19.61386947
0.56	19.73012202
0.57	19.83775198
0.58	19.93680443
0.59	20.02732724
0.6	20.10937101
0.61	20.18298908
0.62	20.24823742
0.63	20.30517463
0.64	20.35386186
0.65	20.39436276
0.66	20.42674348
0.67	20.45107255
0.68	20.46742089
0.69	20.47586172
0.7	20.47647053
0.71	20.46932501
0.72	20.45450502
0.73	20.43209254
0.74	20.4021716
0.75	20.36482822
0.76	20.32015039
0.77	20.268228
0.78	20.20915278
0.79	20.14301825
0.8	20.06991968
0.81	19.98995402
0.82	19.90321987
0.83	19.80981738
0.84	19.70984826
0.85	19.60341568
0.86	19.49062421
0.87	19.3715798
0.88	19.24638974
0.89	19.11516252
0.9	18.9780079
0.91	18.83503673
0.92	18.68636099
0.93	18.53209372
0.94	18.37234891
0.95	18.20724152
0.96	18.03688738
0.97	17.86140316
0.98	17.68090631
0.99	17.495515
1	17.30534809
1.01	17.11052505
1.02	16.91116594
1.03	16.70739132
1.04	16.49932224
1.05	16.28708016
1.06	16.07078692
1.07	15.85056467
1.08	15.62653583
1.09	15.39882307
1.1	15.16754919
1.11	14.93283714
1.12	14.69480996
1.13	14.45359068
1.14	14.20930237
1.15	13.96206798
1.16	13.71201039
1.17	13.45925231
1.18	13.20391625
1.19	12.94612449
1.2	12.685999
1.21	12.42366144
1.22	12.15923309
1.23	11.89283481
1.24	11.624587
1.25	11.35460957
1.26	11.0830219
1.27	10.80994277
1.28	10.53549036
1.29	10.25978218
1.3	9.982935056
1.31	9.705065078
1.32	9.426287569
1.33	9.14671705
1.34	8.866467199
1.35	8.585650823
1.36	8.304379818
1.37	8.022765141
1.38	7.740916774
1.39	7.458943693
1.4	7.176953838
1.41	6.89505408
1.42	6.613350193
1.43	6.331946824
1.44	6.050947466
1.45	5.770454428
1.46	5.490568811
1.47	5.21139048
1.48	4.933018036
1.49	4.655548798
1.5	4.379078771
1.51	4.10370263
1.52	3.829513693
1.53	3.556603898
1.54	3.285063788
1.55	3.014982483
1.56	2.746447668
1.57	2.479545566
1.58	2.214360928
1.59	1.950977011
1.6	1.68947556
1.61	1.429936797
1.62	1.172439402
1.63	0.9170604999
1.64	0.6638756456
1.65	0.412958813
1.66	0.1643823817
1.67	-0.08178287489
1.68	-0.3254677997
1.69	-0.5666048625
1.7	-0.8051281689
1.71	-1.04097347
1.72	-1.274078167
1.73	-1.504381325
1.74	-1.731823673
1.75	-1.956347611
1.76	-2.17789722
1.77	-2.396418261
1.78	-2.611858179
1.79	-2.824166112
1.8	-3.033292884
1.81	-3.239191017
1.82	-3.441814724
1.83	-3.641119913
1.84	-3.837064189
1.85	-4.029606846
1.86	-4.218708875
1.87	-4.404332954
1.88	-4.586443449
1.89	-4.765006411
1.9	-4.93998957
1.91	-5.111362332
1.92	-5.279095775
1.93	-5.44316264
1.94	-5.603537328
1.95	-5.76019589
1.96	-5.913116024
1.97	-6.062277062
1.98	-6.207659967
1.99	-6.349247317
2	-6.487023304
2.01	-6.620973717
2.02	-6.751085934
2.03	-6.877348912
2.04	-6.999753173
2.05	-7.118290794
2.06	-7.232955396
2.07	-7.343742126
2.08	-7.450647648
2.09	-7.553670128
2.1	-7.65280922
2.11	-7.748066049
2.12	-7.839443199
2.13	-7.926944698
2.14	-8.010575998
2.15	-8.090343962
2.16	-8.166256847
2.17	-8.238324286
2.18	-8.306557273
2.19	-8.37096814
2.2	-8.431570547
2.21	-8.488379455
2.22	-8.541411115
2.23	-8.590683043
2.24	-8.636214005
2.25	-8.678023995
2.26	-8.716134218
2.27	-8.750567064
2.28	-8.781346097
2.29	-8.808496024
2.3	-8.832042682
2.31	-8.852013015
2.32	-8.868435051
2.33	-8.881337882
2.34	-8.890751642
2.35	-8.896707486
2.36	-8.899237567
2.37	-8.898375015
2.38	-8.894153913
2.39	-8.886609277
2.4	-8.875777031
2.41	-8.861693986
2.42	-8.844397818
2.43	-8.823927042
2.44	-8.800320992
2.45	-8.773619798
2.46	-8.743864359
2.47	-8.711096327
2.48	-8.675358076
2.49	-8.636692683
2.5	-8.595143906
2.51	-8.550756155
2.52	-8.503574477
2.53	-8.453644523
2.54	-8.401012534
2.55	-8.345725311
2.56	-8.287830194
2.57	-8.227375041
2.58	-8.164408199
2.59	-8.098978488
2.6	-8.031135171
2.61	-7.960927937
2.62	-7.888406873
2.63	-7.813622443
2.64	-7.736625468
2.65	-7.657467097
2.66	-7.576198791
2.67	-7.492872295
2.68	-7.40753962
2.69	-7.320253017
2.7	-7.231064956
2.71	-7.140028107
2.72	-7.047195314
2.73	-6.952619574
2.74	-6.856354016
2.75	-6.758451883
2.76	-6.658966504
2.77	-6.557951277
2.78	-6.455459649
2.79	-6.351545094
2.8	-6.24626109
2.81	-6.139661103
2.82	-6.031798565
2.83	-5.922726853
2.84	-5.812499272
2.85	-5.701169032
2.86	-5.588789232
2.87	-5.47541284
2.88	-5.361092674
2.89	-5.245881382
2.9	-5.129831428
2.91	-5.01299507
2.92	-4.895424343
2.93	-4.777171042
2.94	-4.658286707
2.95	-4.538822602
2.96	-4.4188297
2.97	-4.298358669
2.98	-4.177459853
2.99	-4.056183254
3	-3.934578524
3.01	-3.812694943
3.02	-3.690581405
3.03	-3.568286406
3.04	-3.445858029
3.05	-3.323343927
3.06	-3.200791311
3.07	-3.07824694
3.08	-2.955757101
3.09	-2.833367603
3.1	-2.711123758
3.11	-2.589070374
3.12	-2.467251742
3.13	-2.34571162
3.14	-2.224493229
3.15	-2.103639236
3.16	-1.983191746
3.17	-1.863192292
3.18	-1.743681824
3.19	-1.624700697
3.2	-1.506288668
3.21	-1.388484881
3.22	-1.271327861
3.23	-1.154855504
3.24	-1.03910507
3.25	-0.9241131771
3.26	-0.8099157892
3.27	-0.6965482133
3.28	-0.5840450907
3.29	-0.4724403912
3.3	-0.3617674061
3.31	-0.2520587434
3.32	-0.1433463215
3.33	-0.03566136423
3.34	0.07096560404
3.35	0.176504763
3.36	0.2809270006
3.37	0.3842039172
3.38	0.4863078291
3.39	0.5872117719
3.4	0.6868895037
3.41	0.7853155074
3.42	0.8824649938
3.43	0.9783139031
3.44	1.072838907
3.45	1.166017411
3.46	1.257827554
3.47	1.348248211
3.48	1.437258992
3.49	1.524840244
3.5	1.610973051
3.51	1.695639232
3.52	1.778821344
3.53	1.860502675
3.54	1.940667253
3.55	2.019299834
3.56	2.096385908
3.57	2.171911692
3.58	2.245864135
3.59	2.318230907
3.6	2.389000402
3.61	2.458161734
3.62	2.525704735
3.63	2.591619949
3.64	2.65589863
3.65	2.718532739
3.66	2.77951494
3.67	2.838838593
3.68	2.896497754
3.69	2.952487166
3.7	3.006802257
3.71	3.059439134
3.72	3.110394578
3.73	3.159666038
3.74	3.207251626
3.75	3.25315011
3.76	3.297360909
3.77	3.339884086
3.78	3.380720344
3.79	3.419871014
3.8	3.457338054
3.81	3.49312404
3.82	3.527232156
3.83	3.55966619
3.84	3.590430528
3.85	3.619530143
3.86	3.646970586
3.87	3.672757984
3.88	3.696899026
3.89	3.71940096
3.9	3.74027158
3.91	3.75951922
3.92	3.777152747
3.93	3.793181548
3.94	3.807615525
3.95	3.820465085
3.96	3.831741132
3.97	3.841455055
3.98	3.849618722
3.99	3.856244468
4	3.86134509
4.01	3.864933833
4.02	3.867024381
4.03	3.867630852
4.04	3.866767782
4.05	3.864450121
4.06	3.860693219
4.07	3.855512817
4.08	3.848925041
4.09	3.840946387
4.1	3.831593713
4.11	3.82088423
4.12	3.808835491
4.13	3.795465381
4.14	3.780792108
4.15	3.764834189
4.16	3.747610447
4.17	3.729139993
4.18	3.709442223
4.19	3.688536801
4.2	3.666443654
4.21	3.643182961
4.22	3.61877514
4.23	3.593240842
4.24	3.566600937
4.25	3.538876507
4.26	3.510088834
4.27	3.480259391
4.28	3.44940983
4.29	3.417561976
4.3	3.384737813
4.31	3.350959475
4.32	3.31624924
4.33	3.280629513
4.34	3.244122823
4.35	3.20675181
4.36	3.168539213
4.37	3.129507868
4.38	3.08968069
4.39	3.049080668
4.4	3.007730856
4.41	2.965654359
4.42	2.922874332
4.43	2.879413962
4.44	2.835296463
4.45	2.790545069
4.46	2.74518302
4.47	2.699233558
4.48	2.652719915
4.49	2.605665305
4.5	2.558092916
4.51	2.510025901
4.52	2.461487372
4.53	2.412500385
4.54	2.36308794
4.55	2.313272968
4.56	2.263078325
4.57	2.21252678
4.58	2.161641015
4.59	2.11044361
4.6	2.058957039
4.61	2.007203662
4.62	1.955205716
4.63	1.902985312
4.64	1.850564422
4.65	1.797964878
4.66	1.74520836
4.67	1.692316395
4.68	1.639310343
4.69	1.586211398
4.7	1.533040576
4.71	1.479818712
4.72	1.426566453
4.73	1.373304252
4.74	1.320052363
4.75	1.266830833
4.76	1.213659499
4.77	1.160557982
4.78	1.10754568
4.79	1.054641766
4.8	1.001865179
4.81	0.9492346242
4.82	0.8967685629
4.83	0.8444852117
4.84	0.7924025366
4.85	0.7405382488
4.86	0.6889098006
4.87	0.6375343816
4.88	0.5864289145
4.89	0.5356100514
4.9	0.4850941704
4.91	0.4348973718
4.92	0.3850354752
4.93	0.3355240159
4.94	0.2863782421
4.95	0.2376131117
4.96	0.1892432901
4.97	0.1412831468
4.98	0.09374675356
4.99	0.04664788172
5	9.047261774e-16
5.01	-0.04618372755
5.02	-0.09189044347
5.03	-0.1371075988
5.04	-0.1818229545
5.05	-0.2260245835
5.06	-0.2697008716
5.07	-0.3128405189
5.08	-0.3554325411
5.09	-0.3974662705
5.1	-0.4389313566
5.11	-0.4798177672
5.12	-0.5201157889
5.13	-0.5598160275
5.14	-0.5989094086
5.15	-0.6373871776
5.16	-0.6752408999
5.17	-0.7124624613
5.18	-0.7490440671
5.19	-0.7849782427
5.2	-0.8202578327
5.21	-0.8548760005
5.22	-0.8888262279
5.23	-0.9221023143
5.24	-0.954698376
5.25	-0.9866088449
5.26	-1.017828468
5.27	-1.048352306
5.28	-1.078175731
5.29	-1.107294429
5.3	-1.135704392
5.31	-1.163401922
5.32	-1.190383627
5.33	-1.216646421
5.34	-1.242187518
5.35	-1.267004435
5.36	-1.291094987
5.37	-1.314457285
5.38	-1.337089736
5.39	-1.358991038
5.4	-1.380160177
5.41	-1.40059643
5.42	-1.420299355
5.43	-1.439268793
5.44	-1.457504865
5.45	-1.475007967
5.46	-1.491778769
5.47	-1.507818213
5.48	-1.523127505
5.49	-1.537708117
5.5	-1.551561784
5.51	-1.564690495
5.52	-1.577096498
5.53	-1.588782287
5.54	-1.599750608
5.55	-1.610004448
5.56	-1.619547039
5.57	-1.628381844
5.58	-1.636512564
5.59	-1.643943129
5.6	-1.650677692
5.61	-1.656720631
5.62	-1.662076541
5.63	-1.666750232
5.64	-1.670746722
5.65	-1.674071239
5.66	-1.67672921
5.67	-1.678726263
5.68	-1.680068216
5.69	-1.680761081
5.7	-1.680811055
5.71	-1.680224515
5.72	-1.679008017
5.73	-1.677168288
5.74	-1.674712227
5.75	-1.671646896
5.76	-1.667979517
5.77	-1.663717467
5.78	-1.658868278
5.79	-1.653439625
5.8	-1.647439329
5.81	-1.640875348
5.82	-1.633755775
5.83	-1.626088833
5.84	-1.617882868
5.85	-1.609146349
5.86	-1.599887861
5.87	-1.590116102
5.88	-1.579839875
5.89	-1.56906809
5.9	-1.557809752
5.91	-1.546073964
5.92	-1.533869917
5.93	-1.521206887
5.94	-1.508094235
5.95	-1.494541395
5.96	-1.480557876
5.97	-1.466153254
5.98	-1.45133717
5.99	-1.436119325
6	-1.420509474
6.01	-1.404517425
6.02	-1.388153033
6.03	-1.371426193
6.04	-1.354346843
6.05	-1.336924953
6.06	-1.319170522
6.07	-1.301093579
6.08	-1.282704172
6.09	-1.26401237
6.1	-1.245028254
6.11	-1.225761916
6.12	-1.206223455
6.13	-1.186422971
6.14	-1.166370565
6.15	-1.146076331
6.16	-1.125550354
6.17	-1.104802707
6.18	-1.083843448
6.19	-1.062682611
6.2	-1.041330211
6.21	-1.019796232
6.22	-0.9980906314
6.23	-0.9762233287
6.24	-0.9542042078
6.25	-0.9320431113
6.26	-0.9097498376
6.27	-0.8873341377
6.28	-0.8648057118
6.29	-0.8421742062
6.3	-0.8194492103
6.31	-0.7966402535
6.32	-0.7737568021
6.33	-0.7508082565
6.34	-0.7278039478
6.35	-0.704753136
6.36	-0.6816650059
6.37	-0.6585486655
6.38	-0.6354131427
6.39	-0.6122673828
6.4	-0.5891202459
6.41	-0.5659805047
6.42	-0.5428568415
6.43	-0.5197578463
6.44	-0.4966920144
6.45	-0.4736677438
6.46	-0.4506933333
6.47	-0.4277769803
6.48	-0.4049267787
6.49	-0.3821507166
6.5	-0.3594566749
6.51	-0.3368524248
6.52	-0.3143456262
6.53	-0.2919438261
6.54	-0.2696544565
6.55	-0.247484833
6.56	-0.225442153
6.57	-0.2035334944
6.58	-0.1817658138
6.59	-0.1601459452
6.6	-0.138680599
6.61	-0.11737636
6.62	-0.09623968673
6.63	-0.07527690987
6.64	-0.05449423145
6.65	-0.0338977236
6.66	-0.01349332757
6.67	0.006713147173
6.68	0.02671602389
6.69	0.04650975936
6.7	0.06608894464
6.71	0.08544830581
6.72	0.1045827046
6.73	0.123487139
6.74	0.1421567438
6.75	0.160586791
6.76	0.1787726903
6.77	0.1967099896
6.78	0.2143943751
6.79	0.2318216714
6.8	0.2489878422
6.81	0.2658889902
6.82	0.2825213569
6.83	0.2988813231
6.84	0.3149654086
6.85	0.3307702724
6.86	0.3462927122
6.87	0.3615296644
6.88	0.3764782042
6.89	0.3911355447
6.9	0.405499037
6.91	0.41956617
6.92	0.4333345694
6.93	0.4468019978
6.94	0.4599663538
6.95	0.4728256717
6.96	0.4853781207
6.97	0.4976220043
6.98	0.5095557598
6.99	0.5211779573
7	0.532487299
7.01	0.5434826184
7.02	0.5541628796
7.03	0.5645271759
7.04	0.5745747295
7.05	0.5843048901
7.06	0.5937171337
7.07	0.6028110623
7.08	0.6115864019
7.09	0.6200430021
7.1	0.6281808343
7.11	0.6359999909
7.12	0.6435006842
7.13	0.6506832446
7.14	0.6575481198
7.15	0.664095873
7.16	0.670327182
7.17	0.6762428377
7.18	0.6818437423
7.19	0.6871309083
7.2	0.6921054567
7.21	0.6967686159
7.22	0.7011217196
7.23	0.7051662057
7.24	0.7089036147
7.25	0.7123355877
7.26	0.7154638653
7.27	0.7182902854
7.28	0.7208167823
7.29	0.723045384
7.3	0.7249782114
7.31	0.7266174762
7.32	0.727965479
7.33	0.7290246078
7.34	0.7297973363
7.35	0.7302862218
7.36	0.7304939035
7.37	0.7304231009
7.38	0.7300766117
7.39	0.7294573103
7.4	0.7285681453
7.41	0.7274121386
7.42	0.7259923827
7.43	0.7243120391
7.44	0.7223743365
7.45	0.720182569
7.46	0.7177400939
7.47	0.71505033
7.48	0.7121167557
7.49	0.708942907
7.5	0.7055323757
7.51	0.7018888072
7.52	0.6980158992
7.53	0.693917399
7.54	0.6895971023
7.55	0.6850588507
7.56	0.6803065301
7.57	0.6753440689
7.58	0.6701754358
7.59	0.664804638
7.6	0.6592357195
7.61	0.6534727588
7.62	0.6475198673
7.63	0.6413811875
7.64	0.6350608909
7.65	0.6285631762
7.66	0.6218922674
7.67	0.6150524121
7.68	0.6080478795
7.69	0.6008829588
7.7	0.593561957
7.71	0.5860891974
7.72	0.5784690176
7.73	0.5707057681
7.74	0.56280381
7.75	0.5547675135
7.76	0.5466012563
7.77	0.5383094216
7.78	0.5298963964
7.79	0.5213665703
7.8	0.512724333
7.81	0.5039740732
7.82	0.4951201769
7.83	0.4861670256
7.84	0.4771189947
7.85	0.4679804521
7.86	0.4587557564
7.87	0.4494492554
7.88	0.4400652847
7.89	0.430608166
7.9	0.4210822057
7.91	0.4114916934
7.92	0.4018409004
7.93	0.3921340784
7.94	0.3823754579
7.95	0.372569247
7.96	0.3627196299
7.97	0.3528307655
7.98	0.3429067863
7.99	0.3329517968
8	0.3229698728
8.01	0.3129650591
8.02	0.3029413695
8.03	0.2929027848
8.04	0.2828532516
8.05	0.2727966816
8.06	0.2627369504
8.07	0.2526778958
8.08	0.2426233176
8.09	0.2325769758
8.1	0.2225425899
8.11	0.2125238381
8.12	0.2025243558
8.13	0.1925477351
8.14	0.1825975236
8.15	0.1726772238
8.16	0.1627902918
8.17	0.1529401368
8.18	0.1431301201
8.19	0.1333635545
8.2	0.1236437033
8.21	0.1139737796
8.22	0.1043569457
8.23	0.09479631245
8.24	0.08529493828
8.25	0.07585582887
8.26	0.06648193644
8.27	0.05717615913
8.28	0.04794134047
8.29	0.03878026886
8.3	0.02969567703
8.31	0.02069024161
8.32	0.0117665826
8.33	0.002927263034
8.34	-0.00582521151
8.35	-0.01448839323
8.36	-0.02305989246
8.37	-0.03153737801
8.38	-0.03991857748
8.39	-0.04820127749
8.4	-0.05638332396
8.41	-0.06446262234
8.42	-0.0724371378
8.43	-0.08030489539
8.44	-0.08806398023
8.45	-0.0957125376
8.46	-0.1032487731
8.47	-0.1106709526
8.48	-0.1179774024
8.49	-0.1251665094
8.5	-0.1322367207
8.51	-0.1391865441
8.52	-0.1460145475
8.53	-0.1527193596
8.54	-0.1592996688
8.55	-0.1657542241
8.56	-0.1720818343
8.57	-0.1782813683
8.58	-0.1843517544
8.59	-0.1902919808
8.6	-0.1961010947
8.61	-0.2017782026
8.62	-0.2073224697
8.63	-0.2127331199
8.64	-0.2180094354
8.65	-0.2231507562
8.66	-0.22815648
8.67	-0.233026062
8.68	-0.2377590141
8.69	-0.2423549049
8.7	-0.2468133591
8.71	-0.2511340571
8.72	-0.2553167346
8.73	-0.2593611824
8.74	-0.2632672453
8.75	-0.2670348223
8.76	-0.2706638656
8.77	-0.2741543806
8.78	-0.2775064248
8.79	-0.2807201075
8.8	-0.2837955894
8.81	-0.286733082
8.82	-0.2895328466
8.83	-0.2921951943
8.84	-0.294720485
8.85	-0.2971091268
8.86	-0.2993615755
8.87	-0.301478334
8.88	-0.3034599515
8.89	-0.3053070227
8.9	-0.3070201875
8.91	-0.30860013
8.92	-0.310047578
8.93	-0.3113633021
8.94	-0.3125481151
8.95	-0.3136028713
8.96	-0.3145284656
8.97	-0.3153258329
8.98	-0.3159959475
8.99	-0.3165398219
9	-0.3169585064
9.01	-0.3172530883
9.02	-0.317424691
9.03	-0.3174744732
9.04	-0.3174036281
9.05	-0.3172133829
9.06	-0.3169049975
9.07	-0.3164797643
9.08	-0.3159390067
9.09	-0.3152840789
9.1	-0.3145163646
9.11	-0.3136372767
9.12	-0.312648256
9.13	-0.3115507706
9.14	-0.310346315
9.15	-0.3090364092
9.16	-0.3076225984
9.17	-0.3061064512
9.18	-0.3044895598
9.19	-0.3027735382
9.2	-0.3009600223
9.21	-0.2990506683
9.22	-0.2970471524
9.23	-0.2949511696
9.24	-0.292764433
9.25	-0.2904886732
9.26	-0.2881256371
9.27	-0.2856770873
9.28	-0.2831448012
9.29	-0.2805305701
9.3	-0.2778361987
9.31	-0.2750635039
9.32	-0.2722143143
9.33	-0.2692904691
9.34	-0.2662938175
9.35	-0.2632262179
9.36	-0.260089537
9.37	-0.256885649
9.38	-0.2536164352
9.39	-0.2502837824
9.4	-0.2468895831
9.41	-0.243435734
9.42	-0.2399241355
9.43	-0.2363566911
9.44	-0.2327353063
9.45	-0.2290618882
9.46	-0.2253383445
9.47	-0.2215665829
9.48	-0.2177485106
9.49	-0.213886033
9.5	-0.2099810535
9.51	-0.2060354727
9.52	-0.2020511875
9.53	-0.1980300908
9.54	-0.1939740703
9.55	-0.1898850084
9.56	-0.1857647812
9.57	-0.1816152577
9.58	-0.1774382998
9.59	-0.1732357609
9.6	-0.1690094857
9.61	-0.1647613098
9.62	-0.1604930585
9.63	-0.1562065467
9.64	-0.151903578
9.65	-0.1475859445
9.66	-0.1432554259
9.67	-0.138913789
9.68	-0.1345627873
9.69	-0.1302041604
9.7	-0.1258396336
9.71	-0.1214709169
9.72	-0.1170997053
9.73	-0.1127276777
9.74	-0.1083564964
9.75	-0.1039878072
9.76	-0.09962323833
9.77	-0.09526440035
9.78	-0.09091288563
9.79	-0.08657026789
9.8	-0.08223810186
9.81	-0.07791792282
9.82	-0.07361124625
9.83	-0.06931956744
9.84	-0.06504436113
9.85	-0.06078708113
9.86	-0.05654916003
9.87	-0.05233200884
9.88	-0.04813701664
9.89	-0.04396555033
9.9	-0.03981895431
9.91	-0.03569855017
9.92	-0.03160563645
9.93	-0.02754148838
9.94	-0.02350735761
9.95	-0.01950447195
9.96	-0.0155340352
9.97	-0.01159722691
9.98	-0.007695202137
9.99	-0.003829091307
10	-1.485288941e-16
10.01	0.003790991212
10.02	0.007542826926
10.03	0.01125447706
10.04	0.01492493697
10.05	0.01855322763
10.06	0.02213839567
10.07	0.02567951356
10.08	0.02917567965
10.09	0.03262601827
10.1	0.0360296798
10.11	0.03938584076
10.12	0.04269370382
10.13	0.04595249785
10.14	0.04916147798
10.15	0.05231992559
10.16	0.05542714834
10.17	0.05848248015
10.18	0.06148528122
10.19	0.06443493798
10.2	0.06733086307
10.21	0.07017249532
10.22	0.07295929969
10.23	0.0756907672
10.24	0.07836641488
10.25	0.08098578568
10.26	0.0835484484
10.27	0.08605399758
10.28	0.08850205343
10.29	0.09089226166
10.3	0.09322429343
10.31	0.09549784515
10.32	0.09771263841
10.33	0.09986841978
10.34	0.1019649607
10.35	0.1040020573
10.36	0.1059795302
10.37	0.1078972245
10.38	0.1097550092
10.39	0.1115527775
10.4	0.1132904463
10.41	0.114967956
10.42	0.1165852706
10.43	0.1181423769
10.44	0.1196392848
10.45	0.1210760269
10.46	0.1224526582
10.47	0.1237692559
10.48	0.1250259191
10.49	0.1262227687
10.5	0.1273599469
10.51	0.1284376172
10.52	0.1294559638
10.53	0.1304151918
10.54	0.1313155264
10.55	0.1321572129
10.56	0.1329405164
10.57	0.1336657214
10.58	0.1343331316
