temps	angle
0	0
0.01	0.3125795348
0.02	0.6219643361
0.03	0.9281025405
0.04	1.230943679
0.05	1.530438675
0.06	1.826539847
0.07	2.119200903
0.08	2.408376944
0.09	2.694024458
0.1	2.976101323
0.11	3.254566798
0.12	3.529381527
0.13	3.800507529
0.14	4.067908203
0.15	4.331548315
0.16	4.591394
0.17	4.847412758
0.18	5.099573444
0.19	5.347846268
0.2	5.592202786
0.21	5.832615898
0.22	6.069059838
0.23	6.301510169
0.24	6.529943781
0.25	6.754338875
0.26	6.974674963
0.27	7.19093286
0.28	7.403094672
0.29	7.611143791
0.3	7.815064887
0.31	8.014843899
0.32	8.210468024
0.33	8.401925712
0.34	8.589206653
0.35	8.77230177
0.36	8.951203206
0.37	9.125904319
0.38	9.296399667
0.39	9.462684999
0.4	9.624757245
0.41	9.782614506
0.42	9.936256039
0.43	10.08568225
0.44	10.23089468
0.45	10.371896
0.46	10.50868997
0.47	10.64128149
0.48	10.76967651
0.49	10.89388208
0.5	11.0139063
0.51	11.12975832
0.52	11.24144832
0.53	11.34898754
0.54	11.45238818
0.55	11.55166348
0.56	11.64682763
0.57	11.73789582
0.58	11.82488417
0.59	11.90780977
0.6	11.98669061
0.61	12.06154561
0.62	12.1323946
0.63	12.19925827
0.64	12.2621582
0.65	12.32111683
0.66	12.37615743
0.67	12.42730411
0.68	12.47458177
0.69	12.51801614
0.7	12.55763371
0.71	12.59346175
0.72	12.62552827
0.73	12.65386204
0.74	12.67849254
0.75	12.69944995
0.76	12.71676516
0.77	12.73046972
0.78	12.74059585
0.79	12.74717643
0.8	12.75024496
0.81	12.74983554
0.82	12.74598289
0.83	12.73872233
0.84	12.72808971
0.85	12.71412148
0.86	12.69685459
0.87	12.67632653
0.88	12.65257531
0.89	12.62563941
0.9	12.59555782
0.91	12.56236996
0.92	12.52611571
0.93	12.48683539
0.94	12.44456972
0.95	12.39935985
0.96	12.35124728
0.97	12.30027392
0.98	12.246482
0.99	12.18991412
1	12.13061319
1.01	12.06862245
1.02	12.00398541
1.03	11.93674588
1.04	11.86694795
1.05	11.79463593
1.06	11.7198544
1.07	11.64264814
1.08	11.56306217
1.09	11.48114166
1.1	11.39693202
1.11	11.31047877
1.12	11.22182762
1.13	11.13102441
1.14	11.0381151
1.15	10.94314577
1.16	10.8461626
1.17	10.74721184
1.18	10.64633983
1.19	10.54359295
1.2	10.43901765
1.21	10.3326604
1.22	10.22456767
1.23	10.11478597
1.24	10.00336178
1.25	9.890341567
1.26	9.77577178
1.27	9.659698809
1.28	9.542168997
1.29	9.423228616
1.3	9.30292386
1.31	9.181300835
1.32	9.05840554
1.33	8.934283864
1.34	8.80898157
1.35	8.682544283
1.36	8.555017484
1.37	8.426446493
1.38	8.296876465
1.39	8.166352372
1.4	8.034918998
1.41	7.902620929
1.42	7.769502539
1.43	7.635607982
1.44	7.500981183
1.45	7.36566583
1.46	7.22970536
1.47	7.093142953
1.48	6.956021522
1.49	6.818383705
1.5	6.680271853
1.51	6.541728027
1.52	6.402793983
1.53	6.26351117
1.54	6.123920717
1.55	5.984063429
1.56	5.843979773
1.57	5.703709879
1.58	5.563293526
1.59	5.422770137
1.6	5.282178771
1.61	5.141558118
1.62	5.000946491
1.63	4.860381817
1.64	4.719901637
1.65	4.579543091
1.66	4.439342921
1.67	4.299337457
1.68	4.159562616
1.69	4.020053897
1.7	3.880846371
1.71	3.741974681
1.72	3.603473033
1.73	3.465375192
1.74	3.327714481
1.75	3.19052377
1.76	3.053835476
1.77	2.917681559
1.78	2.782093512
1.79	2.647102368
1.8	2.512738685
1.81	2.379032549
1.82	2.246013569
1.83	2.113710874
1.84	1.982153107
1.85	1.851368428
1.86	1.721384506
1.87	1.592228517
1.88	1.463927146
1.89	1.336506578
1.9	1.209992502
1.91	1.084410105
1.92	0.9597840702
1.93	0.8361385792
1.94	0.7134973065
1.95	0.5918834195
1.96	0.4713195776
1.97	0.3518279307
1.98	0.2334301184
1.99	0.1161472692
2	9.010447602e-16
2.01	-0.1149915846
2.02	-0.2288078924
2.03	-0.341429844
2.04	-0.4528388727
2.05	-0.5630169245
2.06	-0.671946458
2.07	-0.7796104438
2.08	-0.8859923642
2.09	-0.9910762123
2.1	-1.094846492
2.11	-1.197288215
2.12	-1.298386904
2.13	-1.398128586
2.14	-1.496499796
2.15	-1.593487573
2.16	-1.689079459
2.17	-1.783263497
2.18	-1.876028229
2.19	-1.967362697
2.2	-2.057256436
2.21	-2.145699477
2.22	-2.232682341
2.23	-2.31819604
2.24	-2.402232069
2.25	-2.484782411
2.26	-2.565839528
2.27	-2.645396362
2.28	-2.723446331
2.29	-2.799983324
2.3	-2.875001703
2.31	-2.948496294
2.32	-3.020462388
2.33	-3.090895736
2.34	-3.159792544
2.35	-3.227149473
2.36	-3.292963633
2.37	-3.357232581
2.38	-3.419954314
2.39	-3.481127269
2.4	-3.540750317
2.41	-3.598822758
2.42	-3.655344319
2.43	-3.71031515
2.44	-3.763735818
2.45	-3.815607303
2.46	-3.865930995
2.47	-3.914708689
2.48	-3.961942578
2.49	-4.007635253
2.5	-4.051789694
2.51	-4.094409269
2.52	-4.135497727
2.53	-4.175059193
2.54	-4.213098164
2.55	-4.249619504
2.56	-4.28462844
2.57	-4.318130553
2.58	-4.35013178
2.59	-4.380638402
2.6	-4.409657041
2.61	-4.437194658
2.62	-4.463258544
2.63	-4.487856314
2.64	-4.510995907
2.65	-4.532685574
2.66	-4.55293388
2.67	-4.57174969
2.68	-4.58914217
2.69	-4.605120782
2.7	-4.619695271
2.71	-4.63287567
2.72	-4.644672286
2.73	-4.655095698
2.74	-4.664156751
2.75	-4.671866551
2.76	-4.67823646
2.77	-4.683278086
2.78	-4.687003283
2.79	-4.689424143
2.8	-4.690552989
2.81	-4.690402372
2.82	-4.688985064
2.83	-4.686314052
2.84	-4.682402532
2.85	-4.677263904
2.86	-4.67091177
2.87	-4.66335992
2.88	-4.654622334
2.89	-4.644713172
2.9	-4.633646772
2.91	-4.62143764
2.92	-4.608100447
2.93	-4.593650024
2.94	-4.578101355
2.95	-4.561469572
2.96	-4.543769948
2.97	-4.525017895
2.98	-4.505228955
2.99	-4.484418795
3	-4.462603203
3.01	-4.439798082
3.02	-4.416019444
3.03	-4.391283406
3.04	-4.36560618
3.05	-4.339004075
3.06	-4.311493487
3.07	-4.283090893
3.08	-4.253812848
3.09	-4.22367598
3.1	-4.192696981
3.11	-4.160892608
3.12	-4.128279673
3.13	-4.094875039
3.14	-4.060695614
3.15	-4.02575835
3.16	-3.990080235
3.17	-3.953678285
3.18	-3.916569546
3.19	-3.878771084
3.2	-3.840299981
3.21	-3.801173333
3.22	-3.761408241
3.23	-3.721021809
3.24	-3.68003114
3.25	-3.638453329
3.26	-3.596305459
3.27	-3.5536046
3.28	-3.510367798
3.29	-3.466612077
3.3	-3.422354431
3.31	-3.37761182
3.32	-3.332401168
3.33	-3.286739355
3.34	-3.240643217
3.35	-3.194129539
3.36	-3.147215051
3.37	-3.099916427
3.38	-3.052250277
3.39	-3.004233147
3.4	-2.955881511
3.41	-2.907211771
3.42	-2.858240252
3.43	-2.808983197
3.44	-2.759456766
3.45	-2.70967703
3.46	-2.659659968
3.47	-2.609421466
3.48	-2.55897731
3.49	-2.508343187
3.5	-2.457534676
3.51	-2.406567251
3.52	-2.355456272
3.53	-2.304216989
3.54	-2.252864531
3.55	-2.20141391
3.56	-2.149880013
3.57	-2.098277603
3.58	-2.046621313
3.59	-1.994925647
3.6	-1.943204974
3.61	-1.891473527
3.62	-1.8397454
3.63	-1.788034547
3.64	-1.736354777
3.65	-1.684719753
3.66	-1.633142993
3.67	-1.581637861
3.68	-1.530217571
3.69	-1.478895181
3.7	-1.427683594
3.71	-1.376595554
3.72	-1.325643645
3.73	-1.274840289
3.74	-1.224197744
3.75	-1.173728102
3.76	-1.123443289
3.77	-1.073355061
3.78	-1.023475007
3.79	-0.9738145399
3.8	-0.9243849033
3.81	-0.8751971648
3.82	-0.8262622168
3.83	-0.777590775
3.84	-0.7291933774
3.85	-0.6810803827
3.86	-0.63326197
3.87	-0.5857481372
3.88	-0.5385487004
3.89	-0.4916732932
3.9	-0.4451313656
3.91	-0.3989321833
3.92	-0.3530848274
3.93	-0.3075981933
3.94	-0.2624809904
3.95	-0.2177417416
3.96	-0.1733887828
3.97	-0.1294302625
3.98	-0.08587414152
3.99	-0.04272819249
4	-6.629516857e-16
4.01	0.04230303988
4.02	0.08417371958
4.03	0.1256050202
4.04	0.1665901114
4.05	0.2071223516
4.06	0.2471952875
4.07	0.2868026544
4.08	0.3259383758
4.09	0.3645965631
4.1	0.4027715155
4.11	0.4404577195
4.12	0.4776498486
4.13	0.5143427629
4.14	0.5505315088
4.15	0.586211318
4.16	0.6213776075
4.17	0.6560259786
4.18	0.6901522165
4.19	0.7237522894
4.2	0.756822348
4.21	0.7893587246
4.22	0.8213579321
4.23	0.8528166636
4.24	0.8837317911
4.25	0.9141003647
4.26	0.9439196116
4.27	0.9731869353
4.28	1.001899914
4.29	1.030056301
4.3	1.05765402
4.31	1.084691169
4.32	1.111166016
4.33	1.137076996
4.34	1.162422715
4.35	1.187201945
4.36	1.211413621
4.37	1.235056846
4.38	1.258130882
4.39	1.280635155
4.4	1.302569248
4.41	1.323932905
4.42	1.344726025
4.43	1.364948664
4.44	1.384601029
4.45	1.403683482
4.46	1.422196534
4.47	1.440140845
4.48	1.457517221
4.49	1.474326617
4.5	1.490570128
4.51	1.506248994
4.52	1.521364593
4.53	1.535918443
4.54	1.549912198
4.55	1.563347648
4.56	1.576226716
4.57	1.588551455
4.58	1.600324048
4.59	1.611546807
4.6	1.622222168
4.61	1.632352691
4.62	1.641941059
4.63	1.650990073
4.64	1.659502653
4.65	1.667481836
4.66	1.674930771
4.67	1.681852721
4.68	1.688251057
4.69	1.69412926
4.7	1.699490915
4.71	1.704339713
4.72	1.708679445
4.73	1.712514004
4.74	1.715847379
4.75	1.718683656
4.76	1.721027014
4.77	1.722881725
4.78	1.724252149
4.79	1.725142733
4.8	1.725558012
4.81	1.725502604
4.82	1.724981205
4.83	1.723998594
4.84	1.722559627
4.85	1.720669231
4.86	1.718332412
4.87	1.715554241
4.88	1.712339863
4.89	1.708694486
4.9	1.704623385
4.91	1.700131896
4.92	1.695225417
4.93	1.689909404
4.94	1.684189368
4.95	1.678070877
4.96	1.671559549
4.97	1.664661055
4.98	1.65738111
4.99	1.64972548
5	1.641699972
5.01	1.633310437
5.02	1.624562765
5.03	1.615462885
5.04	1.606016762
5.05	1.596230395
5.06	1.586109815
5.07	1.575661084
5.08	1.564890293
5.09	1.553803559
5.1	1.542407022
5.11	1.530706848
5.12	1.518709219
5.13	1.506420341
5.14	1.493846433
5.15	1.480993732
5.16	1.467868487
5.17	1.454476958
5.18	1.440825416
5.19	1.426920139
5.2	1.412767411
5.21	1.398373521
5.22	1.383744762
5.23	1.368887424
5.24	1.353807799
5.25	1.338512177
5.26	1.323006843
5.27	1.307298074
5.28	1.291392144
5.29	1.275295314
5.3	1.259013836
5.31	1.242553949
5.32	1.225921879
5.33	1.209123837
5.34	1.192166016
5.35	1.17505459
5.36	1.157795714
5.37	1.140395523
5.38	1.122860126
5.39	1.105195611
5.4	1.087408038
5.41	1.069503442
5.42	1.051487827
5.43	1.033367169
5.44	1.015147413
5.45	0.9968344714
5.46	0.9784342227
5.47	0.9599525106
5.48	0.9413951429
5.49	0.9227678899
5.5	0.9040764833
5.51	0.8853266153
5.52	0.8665239372
5.53	0.8476740583
5.54	0.8287825448
5.55	0.809854919
5.56	0.7908966578
5.57	0.771913192
5.58	0.752909905
5.59	0.7338921324
5.6	0.71486516
5.61	0.6958342242
5.62	0.6768045097
5.63	0.6577811499
5.64	0.6387692249
5.65	0.6197737614
5.66	0.6007997316
5.67	0.5818520524
5.68	0.5629355848
5.69	0.5440551328
5.7	0.5252154428
5.71	0.5064212033
5.72	0.4876770435
5.73	0.4689875332
5.74	0.4503571818
5.75	0.4317904381
5.76	0.4132916892
5.77	0.3948652601
5.78	0.3765154135
5.79	0.3582463488
5.8	0.3400622017
5.81	0.3219670439
5.82	0.3039648826
5.83	0.2860596598
5.84	0.2682552522
5.85	0.2505554706
5.86	0.2329640596
5.87	0.2154846974
5.88	0.198120995
5.89	0.1808764963
5.9	0.163754678
5.91	0.1467589487
5.92	0.129892649
5.93	0.1131590514
5.94	0.09656136006
5.95	0.08010271022
5.96	0.06378616853
5.97	0.04761473266
5.98	0.03159133119
5.99	0.01571882358
6	3.658294435e-16
6.01	-0.01556241867
6.02	-0.03096578092
6.03	-0.04620750464
6.04	-0.06128507709
6.05	-0.07619605495
6.06	-0.09093806422
6.07	-0.1055088002
6.08	-0.1199060275
6.09	-0.1341275799
6.1	-0.14817136
6.11	-0.1620353397
6.12	-0.1757175594
6.13	-0.1892161282
6.14	-0.2025292238
6.15	-0.2156550921
6.16	-0.228592047
6.17	-0.2413384704
6.18	-0.2538928117
6.19	-0.2662535878
6.2	-0.2784193825
6.21	-0.2903888465
6.22	-0.3021606971
6.23	-0.3137337176
6.24	-0.3251067574
6.25	-0.3362787313
6.26	-0.3472486192
6.27	-0.3580154659
6.28	-0.3685783806
6.29	-0.3789365363
6.3	-0.3890891698
6.31	-0.3990355811
6.32	-0.4087751328
6.33	-0.4183072498
6.34	-0.4276314189
6.35	-0.436747188
6.36	-0.445654166
6.37	-0.4543520223
6.38	-0.4628404858
6.39	-0.471119345
6.4	-0.479188447
6.41	-0.4870476972
6.42	-0.4946970587
6.43	-0.5021365517
6.44	-0.5093662529
6.45	-0.5163862951
6.46	-0.5231968662
6.47	-0.5297982092
6.48	-0.5361906209
6.49	-0.542374452
6.5	-0.5483501059
6.51	-0.5541180382
6.52	-0.5596787562
6.53	-0.5650328184
6.54	-0.5701808333
6.55	-0.5751234592
6.56	-0.5798614034
6.57	-0.5843954215
6.58	-0.5887263166
6.59	-0.5928549389
6.6	-0.5967821847
6.61	-0.6005089959
6.62	-0.6040363592
6.63	-0.6073653054
6.64	-0.6104969087
6.65	-0.613432286
6.66	-0.6161725962
6.67	-0.6187190391
6.68	-0.6210728554
6.69	-0.6232353253
6.7	-0.625207768
6.71	-0.626991541
6.72	-0.6285880394
6.73	-0.6299986947
6.74	-0.631224975
6.75	-0.632268383
6.76	-0.6331304563
6.77	-0.6338127662
6.78	-0.6343169168
6.79	-0.6346445446
6.8	-0.6347973173
6.81	-0.6347769336
6.82	-0.6345851218
6.83	-0.6342236395
6.84	-0.6336942728
6.85	-0.6329988353
6.86	-0.6321391674
6.87	-0.6311171356
6.88	-0.6299346319
6.89	-0.6285935727
6.9	-0.6270958983
6.91	-0.6254435719
6.92	-0.6236385791
6.93	-0.6216829271
6.94	-0.6195786436
6.95	-0.6173277764
6.96	-0.6149323929
6.97	-0.6123945785
6.98	-0.6097164366
6.99	-0.6069000877
7	-0.6039476684
7.01	-0.600861331
7.02	-0.5976432423
7.03	-0.5942955835
7.04	-0.5908205489
7.05	-0.5872203455
7.06	-0.5834971923
7.07	-0.5796533191
7.08	-0.5756909666
7.09	-0.571612385
7.1	-0.5674198335
7.11	-0.5631155797
7.12	-0.5587018988
7.13	-0.5541810732
7.14	-0.5495553911
7.15	-0.5448271466
7.16	-0.5399986387
7.17	-0.5350721705
7.18	-0.5300500488
7.19	-0.5249345832
7.2	-0.5197280857
7.21	-0.5144328696
7.22	-0.5090512496
7.23	-0.5035855405
7.24	-0.4980380566
7.25	-0.4924111118
7.26	-0.4867070179
7.27	-0.480928085
7.28	-0.4750766202
7.29	-0.4691549273
7.3	-0.4631653063
7.31	-0.4571100524
7.32	-0.4509914559
7.33	-0.4448118016
7.34	-0.4385733677
7.35	-0.4322784258
7.36	-0.4259292404
7.37	-0.4195280677
7.38	-0.4130771558
7.39	-0.4065787439
7.4	-0.4000350615
7.41	-0.3934483285
7.42	-0.3868207541
7.43	-0.3801545366
7.44	-0.373451863
7.45	-0.3667149083
7.46	-0.3599458351
7.47	-0.3531467932
7.48	-0.3463199191
7.49	-0.3394673357
7.5	-0.3325911515
7.51	-0.3256934605
7.52	-0.3187763418
7.53	-0.3118418589
7.54	-0.3048920594
7.55	-0.297928975
7.56	-0.2909546205
7.57	-0.2839709937
7.58	-0.2769800751
7.59	-0.2699838275
7.6	-0.2629841956
7.61	-0.2559831055
7.62	-0.2489824648
7.63	-0.2419841618
7.64	-0.2349900655
7.65	-0.228002025
7.66	-0.2210218695
7.67	-0.2140514079
7.68	-0.2070924284
7.69	-0.2001466982
7.7	-0.1932159636
7.71	-0.1863019493
7.72	-0.1794063582
7.73	-0.1725308716
7.74	-0.1656771484
7.75	-0.1588468251
7.76	-0.1520415157
7.77	-0.1452628112
7.78	-0.1385122799
7.79	-0.1317914666
7.8	-0.1251018927
7.81	-0.1184450562
7.82	-0.1118224311
7.83	-0.1052354678
7.84	-0.09868559226
7.85	-0.09217420651
7.86	-0.08570268807
7.87	-0.07927239005
7.88	-0.07288464091
7.89	-0.0665407444
7.9	-0.06024197943
7.91	-0.05398960002
7.92	-0.04778483512
7.93	-0.04162888861
7.94	-0.03552293918
7.95	-0.02946814027
7.96	-0.02346562004
7.97	-0.01751648124
7.98	-0.01162180126
7.99	-0.005782632033
8	-1.794415083e-16
8.01	0.005725093883
8.02	0.01139167418
8.03	0.01699879098
8.04	0.02254551991
8.05	0.02803096211
8.06	0.03345424425
8.07	0.03881451847
8.08	0.04411096241
8.09	0.04934277914
8.1	0.05450919713
8.11	0.05960947022
8.12	0.06464287754
8.13	0.0696087235
8.14	0.07450633767
8.15	0.07933507476
8.16	0.08409431451
8.17	0.08878346163
8.18	0.0934019457
8.19	0.09794922108
8.2	0.1024247668
8.21	0.1068280866
8.22	0.1111587084
8.23	0.1154161847
8.24	0.1196000923
8.25	0.1237100318
8.26	0.127745628
8.27	0.1317065295
8.28	0.1355924087
8.29	0.1394029612
8.3	0.1431379064
8.31	0.1467969866
8.32	0.1503799674
8.33	0.1538866373
8.34	0.1573168074
8.35	0.1606703114
8.36	0.1639470055
8.37	0.167146768
8.38	0.1702694993
8.39	0.1733151214
8.4	0.1762835781
8.41	0.1791748347
8.42	0.1819888775
8.43	0.184725714
8.44	0.1873853725
8.45	0.1899679017
8.46	0.1924733708
8.47	0.1949018691
8.48	0.197253506
8.49	0.1995284103
8.5	0.2017267305
8.51	0.2038486342
8.52	0.2058943081
8.53	0.2078639575
8.54	0.2097578063
8.55	0.2115760968
8.56	0.2133190891
8.57	0.2149870611
8.58	0.2165803084
8.59	0.2180991436
8.6	0.2195438966
8.61	0.2209149138
8.62	0.2222125583
8.63	0.2234372091
8.64	0.2245892616
8.65	0.2256691266
8.66	0.2266772303
8.67	0.2276140144
8.68	0.228479935
8.69	0.2292754632
8.7	0.2300010843
8.71	0.2306572977
8.72	0.2312446166
8.73	0.2317635678
8.74	0.232214691
8.75	0.2325985394
8.76	0.2329156785
8.77	0.2331666862
8.78	0.2333521529
8.79	0.2334726804
8.8	0.2335288824
8.81	0.2335213836
8.82	0.23345082
8.83	0.2333178381
8.84	0.233123095
8.85	0.2328672578
8.86	0.2325510036
8.87	0.2321750192
8.88	0.2317400004
8.89	0.2312466523
8.9	0.2306956886
8.91	0.2300878317
8.92	0.229423812
8.93	0.2287043678
8.94	0.2279302452
8.95	0.2271021974
8.96	0.2262209851
8.97	0.2252873753
8.98	0.224302142
8.99	0.2232660651
9	0.2221799308
9.01	0.2210445307
9.02	0.219860662
9.03	0.2186291271
9.04	0.2173507334
9.05	0.2160262926
9.06	0.214656621
9.07	0.2132425391
9.08	0.2117848711
9.09	0.2102844448
9.1	0.2087420913
9.11	0.2071586448
9.12	0.2055349423
9.13	0.2038718235
9.14	0.2021701302
9.15	0.2004307062
9.16	0.1986543974
9.17	0.1968420511
9.18	0.1949945158
9.19	0.1931126411
9.2	0.1911972777
9.21	0.1892492766
9.22	0.1872694892
9.23	0.1852587672
9.24	0.183217962
9.25	0.1811479246
9.26	0.1790495058
9.27	0.1769235552
9.28	0.1747709216
9.29	0.1725924525
9.3	0.170388994
9.31	0.1681613906
9.32	0.1659104848
9.33	0.163637117
9.34	0.1613421254
9.35	0.1590263457
9.36	0.1566906109
9.37	0.1543357511
9.38	0.1519625932
9.39	0.1495719611
9.4	0.1471646749
9.41	0.1447415512
9.42	0.1423034028
9.43	0.1398510385
9.44	0.1373852627
9.45	0.1349068755
9.46	0.1324166727
9.47	0.1299154449
9.48	0.1274039783
9.49	0.1248830537
9.5	0.1223534469
9.51	0.1198159282
9.52	0.1172712625
9.53	0.1147202088
9.54	0.1121635204
9.55	0.1096019448
9.56	0.1070362232
9.57	0.1044670905
9.58	0.1018952753
9.59	0.0993214996
9.6	0.09674647891
9.61	0.09417092181
9.62	0.09159553002
9.63	0.08902099823
9.64	0.08644801397
9.65	0.08387725754
9.66	0.08130940184
9.67	0.07874511232
9.68	0.07618504681
9.69	0.07362985549
9.7	0.07108018071
9.71	0.06853665698
9.72	0.06599991081
9.73	0.06347056064
9.74	0.06094921676
9.75	0.05843648124
9.76	0.05593294781
9.77	0.05343920182
9.78	0.05095582013
9.79	0.04848337108
9.8	0.04602241438
9.81	0.04357350108
9.82	0.04113717348
9.83	0.03871396508
9.84	0.03630440053
9.85	0.03390899558
9.86	0.031528257
9.87	0.02916268255
9.88	0.02681276097
9.89	0.02447897186
9.9	0.02216178573
9.91	0.01986166388
9.92	0.01757905844
9.93	0.01531441228
9.94	0.01306815901
9.95	0.01084072298
9.96	0.008632519185
9.97	0.00644395333
9.98	0.004275421755
9.99	0.002127311441
10	8.251605225e-17
10.01	-0.002106144338
10.02	-0.004190762732
10.03	-0.006253505728
10.04	-0.008294033266
10.05	-0.01031201468
10.06	-0.01230712868
10.07	-0.01427906336
10.08	-0.0162275162
10.09	-0.01815219401
10.1	-0.02005281298
10.11	-0.02192909859
10.12	-0.02378078567
10.13	-0.0256076183
10.14	-0.02740934987
10.15	-0.02918574297
10.16	-0.03093656943
10.17	-0.03266161025
10.18	-0.03436065559
10.19	-0.03603350471
10.2	-0.03767996598
10.21	-0.03929985679
10.22	-0.04089300352
10.23	-0.04245924154
10.24	-0.0439984151
10.25	-0.04551037735
10.26	-0.04699499024
10.27	-0.04845212448
10.28	-0.04988165953
10.29	-0.05128348346
10.3	-0.052657493
10.31	-0.05400359339
10.32	-0.05532169838
10.33	-0.05661173014
10.34	-0.05787361919
10.35	-0.05910730439
10.36	-0.06031273278
10.37	-0.06148985962
10.38	-0.06263864824
10.39	-0.06375906999
10.4	-0.0648511042
10.41	-0.06591473805
10.42	-0.06694996656
10.43	-0.06795679245
10.44	-0.06893522611
10.45	-0.06988528551
10.46	-0.07080699608
10.47	-0.0717003907
10.48	-0.07256550955
10.49	-0.07340240008
10.5	-0.07421111689
10.51	-0.07499172164
10.52	-0.075744283
10.53	-0.07646887652
